422,5613
419,5614
408,5616
392,5617
377,5618
363,5620
353,5621
347,5623
399,5629
361,5640
404,5650
351,5661
410,5671
343,5682
409,5692
338,5702
408,5712
333,5724
405,5734
329,5744
399,5754
331,5765
392,5775
333,5785
379,5796
339,5807
375,5817
361,5827
378,5837
374,5848
362,5859
376,5869
351,5879
386,5890
343,5900
392,5910
337,5921
442,5932
396,5942
448,5952
291,5962
374,5972
324,5983
406,5994
336,6004
404,6014
340,6025
399,6035
352,6045
396,6056
367,6067
395,6077
387,6087
398,6097
412,6108
404,6118
439,6129
415,6139
467,6150
423,6160
483,6170
419,6180
481,6192
397,6202
450,6212
358,6222
418,6233
334,6243
396,6254
325,6264
386,6275
329,6285
379,6295
335,6305
370,6316
347,6327
363,6337
357,6347
352,6358
370,6368
345,6378
377,6389
332,6400
382,6410
323,6420
383,6430
316,6440
384,6451
310,6462
384,6472
309,6482
381,6493
308,6503
376,6513
312,6524
369,6535
316,6545
358,6555
323,6565
351,6576
336,6658
323,6659
314,6661
309,6662
310,6664
319,6665
338,6667
359,6668
366,6674
318,6684
395,6695
397,6706
432,6716
337,6726
328,6736
353,6747
347,6758
378,6768
345,6778
391,6789
342,6799
402,6809
343,6820
413,6831
347,6841
427,6851
357,6861
438,6872
371,6882
451,6893
391,6903
462,6914
411,6924
466,6934
425,6944
454,6956
418,6966
416,6976
393,6986
373,6996
377,7007
347,7017
380,7028
337,7038
389,7049
332,7059
394,7069
326,7079
397,7091
322,7101
394,7111
320,7121
391,7132
320,7142
389,7153
323,7163
380,7174
330,7184
371,7194
337,7204
363,7215
350,7226
355,7236
360,7246
344,7257
371,7267
335,7277
379,7288
332,7299
390,7309
326,7319
392,7329
324,7340
395,7350
318,7361
397,7371
330,7382
401,7392
330,7402
389,7412
327,7424
378,7434
337,7444
373,7454
348,7464
369,7475
410,7486
429,7496
409,7506
313,7517
365,7527
350,7537
408,7547
354,7559
419,7569
353,7579
427,7589
358,7600
434,7610
363,7621
431,7702
443,7703
464,7705
487,7706
504,7708
511,7709
509,7711
498,7712
444,7719
516,7730
441,7740
504,7750
413,7760
468,7771
380,7781
433,7792
360,7802
413,7813
360,7823
403,7833
370,7843
395,7855
381,7865
387,7875
393,7885
377,7896
403,7906
367,7916
410,7927
357,7938
415,7948
353,7958
419,7968
348,7979
420,7990
345,8000
418,8010
343,8020
413,8031
342,8041
404,8052
344,8062
395,8073
352,8083
385,8093
361,8103
374,8114
369,8125
366,8135
386,8145
370,8156
406,8166
359,8176
405,8187
345,8198
408,8208
341,8218
412,8228
338,8239
426,8249
388,8260
465,8270
328,8281
356,8291
317,8301
400,8311
351,8323
396,8333
364,8343
391,8353
377,8364
386,8374
395,8385
388,8395
418,8406
392,8416
440,8426
398,8436
463,8446
412,8458
489,8468
423,8478
501,8488
428,8499
500,8509
414,8520
471,8530
382,8541
427,8551
355,8561
398,8571
347,8582
381,8593
353,8603
371,8613
366,8624
364,8634
376,8644
354,8655
387,8666
395,8747
401,8749
397,8750
384,8752
368,8753
352,8755
339,8756
330,8757
359,8764
353,8774
369,8784
341,8795
375,8805
333,8815
384,8826
325,8837
388,8847
320,8857
391,8867
317,8878
391,8889
316,8899
388,8909
314,8920
385,8930
325,8940
385,8951
334,8962
374,8972
334,8982
357,8992
342,9003
347,9013
352,9024
337,9034
380,9044
386,9055
453,9065
350,9075
366,9086
316,9097
396,9107
328,9117
403,9127
329,9138
403,9148
331,9159
407,9169
339,9180
408,9190
351,9200
409,9210
370,9222
415,9232
397,9242
425,9252
427,9263
433,9273
452,9284
432,9294
461,9305
411,9315
446,9325
371,9335
417,9346
338,9357
402,9367
323,9377
396,9388
318,9398
393,9408
320,9419
391,9430
324,9440
385,9450
331,9460
377,9470
339,9481
365,9492
348,9502
357,9512
359,9523
346,9533
367,9543
338,9554
377,9565
329,9575
385,9585
321,9595
388,9606
318,9617
391,9627
317,9637
391,9648
315,9658
387,9668
315,9678
382,9690
320,9700
372,9710
365,9791
349,9793
336,9794
327,9796
323,9797
324,9799
335,9800
354,9802
394,9808
323,9819
387,9829
329,9839
416,9850
401,9861
429,9871
315,9881
336,9891
359,9902
369,9912
386,9923
364,9933
400,9944
360,9954
413,9964
361,9974
426,9986
363,9996
438,10006
370,10017
442,10029
400,10040
433,10052
463,10063
432,10075
505,10086
431,10097
490,10108
430,10121
428,10132
429,10143
363,10155
422,10166
339,10177
398,10189
356,10201
369,10212
396,10223
345,10234
416,10247
339,10258
399,10269
360,10280
370,10292
399,10303
345,10315
414,10327
337,10338
393,10349
357,10360
360,10372
393,10384
335,10395
408,10406
333,10418
389,10429
360,10440
358,10452
399,10464
337,10475
407,10486
331,10498
386,10509
369,10521
369,10532
411,10544
341,10555
409,10566
336,10577
384,10590
364,10601
354,10612
423,10624
391,10635
458,10647
299,10658
353,10670
371,10681
365,10692
420,10703
353,10716
424,10727
356,10738
401,10749
396,10761
380,10772
440,10784
376,10796
459,10807
400,10818
451,10829
380,10915
375,10916
378,10918
392,10919
411,10921
429,10923
437,10925
408,10929
375,10940
358,10951
401,10963
334,10975
407,10986
334,10997
381,11009
365,11021
353,11032
402,11043
334,11055
404,11066
333,11077
377,11089
362,11101
343,11112
394,11123
324,11134
396,11146
328,11158
368,11169
361,11181
339,11192
397,11203
326,11214
397,11227
330,11238
366,11249
361,11260
334,11272
398,11283
331,11295
402,11307
332,11318
360,11329
359,11340
329,11352
390,11364
314,11375
389,11386
374,11398
434,11409
390,11421
311,11432
389,11444
328,11455
396,11466
341,11478
370,11490
384,11501
346,11512
414,11524
342,11535
413,11546
367,11558
399,11570
425,11581
391,11592
469,11603
403,11615
474,11627
430,11638
447,11650
454,11661
388,11672
435,11683
339,11696
389,11707
339,11718
348,11729
372,11741
320,11753
393,11764
316,11776
377,11787
335,11798
346,11809
377,11822
324,11833
395,11844
317,11855
373,11867
337,11878
341,11890
376,11901
319,11913
391,11924
313,11935
370,11947
339,11959
340,11970
375,11981
370,12067
355,12069
342,12070
332,12072
328,12073
328,12076
339,12077
397,12082
325,12093
392,12104
317,12115
363,12128
347,12139
334,12150
388,12162
363,12173
456,12184
339,12196
333,12208
348,12219
348,12230
406,12241
338,12253
410,12265
342,12276
387,12288
386,12299
366,12310
430,12322
364,12334
445,12345
389,12356
438,12367
449,12379
430,12391
497,12402
428,12413
498,12425
426,12436
443,12447
426,12460
377,12471
425,12482
343,12493
408,12505
345,12516
375,12528
388,12539
352,12551
417,12562
341,12573
408,12584
351,12597
376,12608
389,12619
348,12631
413,12642
336,12653
400,12665
347,12677
368,12688
387,12699
343,12710
411,12723
332,12734
397,12745
346,12756
365,12768
391,12779
351,12791
424,12803
341,12814
399,12825
355,12836
370,12848
395,12860
344,12871
419,12882
388,12894
470,12905
370,12916
322,12929
382,12940
351,12951
430,12962
353,12974
415,12985
381,12997
389,13008
429,13020
375,13031
454,13042
382,13054
448,13066
424,13077
435,13088
484,13100
433,13111
513,13123
440,13134
419,13220
423,13222
417,13223
402,13225
385,13227
369,13229
356,13230
347,13235
393,13246
378,13257
363,13268
415,13280
346,13292
417,13303
347,13315
390,13326
378,13337
358,13348
412,13361
336,13372
407,13383
337,13394
377,13406
370,13417
345,13429
402,13441
328,13452
396,13463
328,13474
369,13486
375,13498
349,13509
407,13520
325,13532
393,13543
328,13554
361,13566
365,13578
334,13589
431,13600
379,13612
427,13624
287,13635
337,13646
374,13658
344,13669
411,13680
335,13692
404,13704
350,13715
380,13726
396,13737
362,13749
434,13761
366,13772
442,13784
397,13795
431,13806
459,13817
423,13830
495,13841
414,13852
469,13863
400,13875
395,13886
400,13898
339,13910
401,13921
319,13932
379,13943
336,13955
349,13967
378,13978
324,13989
395,14001
317,14012
379,14024
338,14035
347,14047
377,14058
318,14069
388,14081
308,14093
366,14104
329,14115
336,14127
371,14138
312,14149
382,14161
303,14173
359,14184
324,14195
325,14206
368,14218
315,14230
391,14241
308,14253
359,14264
330,14275
326,14286
295,14373
314,14374
340,14376
364,14377
378,14380
382,14381
375,14383
333,14387
389,14399
322,14410
397,14422
326,14433
375,14444
366,14455
352,14468
411,14479
348,14490
430,14501
369,14513
423,14524
427,14536
417,14547
480,14559
413,14570
484,14581
407,14593
429,14605
405,14616
359,14627
402,14639
322,14650
390,14662
323,14673
362,14685
365,14696
334,14707
396,14718
320,14731
393,14742
330,14753
363,14765
371,14776
335,14787
398,14799
321,14811
389,14822
331,14833
359,14844
370,14856
334,14868
400,14879
322,14891
390,14902
335,14913
361,14924
375,14937
334,14948
400,14959
323,14970
395,14982
349,14994
372,15005
387,15016
338,15028
408,15039
327,15050
393,15063
344,15074
367,15085
441,15096
405,15108
396,15119
295,15131
389,15142
360,15154
377,15165
409,15176
357,15187
432,15200
355,15211
424,15222
388,15234
404,15245
446,15256
396,15268
480,15280
410,15291
481,15302
452,15313
462,15325
504,15337
440,15348
501,15360
403,15371
444,15382
396,15394
385,15406
417,15417
351,15428
426,15439
365,15526
353,15527
347,15529
347,15531
357,15533
376,15534
399,15536
423,15540
347,15551
392,15563
378,15575
361,15586
415,15597
343,15608
418,15620
347,15632
390,15643
379,15654
356,15666
414,15677
339,15688
412,15700
340,15712
380,15723
381,15734
361,15746
422,15757
342,15769
410,15780
340,15792
377,15803
379,15814
347,15826
413,15838
379,15849
466,15860
353,15872
328,15883
362,15895
352,15906
422,15918
345,15929
417,15940
358,15951
389,15964
404,15975
370,15986
442,15997
369,16009
444,16020
397,16032
434,16044
462,16055
428,16066
504,16077
425,16089
490,16101
427,16112
431,16123
431,16135
368,16146
425,16157
336,16169
398,16181
347,16192
363,16203
388,16215
337,16227
409,16238
330,16249
392,16261
347,16272
357,16283
385,16295
329,16307
401,16318
319,16329
381,16340
339,16352
346,16364
379,16375
320,16387
393,16398
314,16409
373,16420
338,16433
339,16444
377,16455
316,16466
391,16478
308,16489
366,16501
342,16513
346,16524
389,16535
320,16546
389,16559
310,16570
365,16581
337,16592
388,16678
375,16680
359,16681
343,16684
330,16685
322,16687
319,16689
358,16693
344,16704
398,16715
328,16727
405,16739
336,16750
384,16761
380,16773
365,16784
428,16796
364,16807
448,16819
389,16830
440,16841
443,16852
422,16865
481,16876
396,16887
454,16899
365,16910
385,16921
372,16933
336,16945
395,16956
318,16967
391,16978
325,16990
360,17002
366,17013
332,17025
395,17036
319,17047
389,17058
326,17071
355,17082
365,17093
327,17104
392,17116
313,17127
383,17139
324,17150
349,17162
364,17173
323,17184
392,17197
312,17208
379,17219
327,17230
349,17242
368,17253
321,17265
390,17276
309,17288
378,17299
337,17310
360,17321
383,17334
328,17345
397,17356
316,17368
382,17379
338,17390
351,17402
406,17414
381,17425
451,17436
290,17447
365,17459
349,17471
366,17482
401,17494
346,17505
422,17516
345,17528
410,17540
377,17551
386,17562
428,17573
376,17585
460,17597
392,17608
465,17619
443,17631
455,17642
501,17653
440,17666
509,17677
416,17688
452,17699
403,17711
383,17722
416,17734
345,17745
382,17831
404,17833
416,17835
419,17837
410,17838
394,17840
377,17841
341,17846
416,17857
341,17868
387,17880
376,17891
357,17903
412,17914
339,17926
414,17937
342,17948
386,17959
379,17972
357,17983
416,17994
341,18006
415,18017
345,18028
386,18040
383,18052
353,18063
415,18074
344,18085
426,18097
360,18109
393,18120
391,18131
359,18143
422,18154
342,18166
416,18178
354,18189
430,18200
450,18211
365,18223
375,18235
326,18246
423,18257
365,18269
397,18280
410,18291
372,18304
444,18315
367,18326
442,18337
388,18349
419,18360
444,18372
408,18383
488,18395
418,18406
497,18417
450,18428
476,18441
495,18452
438,18463
491,18475
388,18486
437,18498
372,18509
380,18521
402,18532
348,18543
421,18554
338,18567
403,18578
358,18589
371,18600
399,18612
342,18623
416,18635
335,18647
394,18658
352,18669
359,18680
390,18692
329,18704
403,18715
322,18726
381,18738
344,18749
346,18760
383,18772
323,18784
398,18795
319,18806
379,18818
346,18829
342,18841
386,18852
329,18864
408,18875
327,18886
376,18898
369,18984
367,18985
373,18988
389,18990
407,18991
419,18993
416,18994
348,18998
318,19010
330,19021
396,19033
327,19044
404,19055
331,19067
379,19079
371,19090
354,19101
415,19112
345,19124
428,19136
365,19147
416,19159
421,19170
406,19181
478,19192
407,19205
485,19216
412,19227
438,19238
417,19250
368,19261
412,19273
322,19284
388,19296
321,19307
356,19318
360,19330
325,19342
391,19353
311,19364
382,19376
322,19387
354,19399
364,19410
326,19422
392,19433
311,19444
379,19456
320,19468
346,19479
359,19490
319,19502
386,19513
305,19524
375,19536
320,19548
345,19559
365,19570
318,19581
389,19593
304,19605
367,19616
311,19628
328,19639
357,19650
313,19661
388,19674
302,19685
363,19696
315,19707
329,19719
357,19730
302,19742
377,19753
335,19765
424,19776
364,19787
309,19800
354,19811
313,19822
392,19833
313,19845
378,19856
341,19868
350,19879
392,19891
338,19902
419,19913
347,19924
414,19937
391,19948
403,19959
457,19971
406,19982
490,19993
414,20005
474,20017
436,20028
416,20039
439,20050
379,20137
362,20139
347,20141
336,20142
332,20144
333,20145
345,20147
405,20151
334,20162
412,20174
338,20186
388,20197
375,20208
358,20219
414,20231
340,20243
413,20254
338,20265
380,20277
370,20288
345,20300
400,20312
324,20323
399,20334
325,20345
366,20357
363,20369
335,20380
394,20391
314,20403
387,20414
322,20425
365,20438
365,20449
325,20460
383,20471
301,20483
372,20494
303,20506
335,20517
353,20529
358,20540
420,20551
244,20562
315,20575
286,20586
329,20597
340,20609
301,20620
370,20632
288,20643
361,20655
303,20666
333,20677
351,20688
313,20701
391,20712
317,20723
399,20734
355,20746
384,20757
406,20769
362,20781
431,20792
334,20803
382,20814
309,20826
312,20838
325,20849
271,20860
345,20872
261,20883
331,20894
284,20907
299,20918
328,20929
275,20940
352,20952
270,20963
337,20975
291,20986
303,20998
338,21009
280,21020
357,21032
273,21044
339,21055
301,21066
307,21078
346,21089
287,21101
368,21112
286,21124
349,21135
314,21146
318,21157
365,21170
306,21181
385,21192
296,21203
439,21291
442,21292
433,21294
415,21295
393,21297
369,21298
345,21300
291,21304
320,21315
339,21326
345,21339
407,21350
340,21361
420,21372
345,21384
399,21395
392,21407
381,21419
443,21430
377,21441
464,21452
399,21464
459,21476
462,21487
450,21498
518,21510
444,21521
522,21532
437,21544
464,21556
440,21567
396,21578
445,21590
359,21602
436,21613
367,21624
406,21636
409,21647
382,21658
450,21670
371,21682
447,21693
381,21704
416,21715
421,21727
387,21739
453,21750
375,21762
448,21773
385,21784
416,21795
428,21808
387,21819
459,21830
378,21841
451,21853
392,21864
420,21876
435,21888
390,21899
461,21910
384,21921
465,21934
412,21945
433,21956
446,21967
397,21979
471,21990
389,22002
459,22013
408,22025
470,22036
518,22047
429,22059
452,22071
384,22082
467,22093
423,22105
439,22116
467,22127
414,22139
491,22151
411,22162
481,22173
441,22184
457,22196
496,22208
447,22219
535,22231
460,22242
536,22253
500,22264
511,22277
545,22288
474,22299
532,22310
424,22322
467,22334
419,22345
415,22356
377,22443
393,22445
416,22446
439,22448
452,22449
455,22451
446,22452
394,22457
444,22468
372,22479
447,22491
365,22503
417,22514
393,22525
378,22537
429,22548
354,22559
430,22572
351,22583
399,22594
384,22605
364,22617
418,22628
343,22640
418,22651
339,22663
386,22674
382,22685
365,22696
423,22709
339,22720
409,22731
333,22743
375,22754
369,22765
340,22777
410,22789
372,22800
457,22811
309,22822
330,22835
359,22846
339,22857
407,22868
329,22880
405,22891
337,22903
374,22915
381,22926
349,22937
420,22948
346,22960
426,22972
372,22983
413,22994
432,23006
404,23017
477,23028
397,23041
468,23052
395,23063
401,23074
395,23086
334,23097
391,23109
299,23120
367,23132
308,23143
333,23154
351,23165
304,23178
376,23189
292,23200
361,23212
305,23223
324,23235
345,23246
296,23258
370,23269
283,23280
350,23291
300,23304
317,23315
344,23326
288,23337
362,23349
276,23360
342,23372
298,23384
309,23395
338,23406
281,23417
362,23429
283,23441
350,23452
302,23463
305,23475
340,23486
280,23497
355,23510
300,23596
288,23598
282,23599
281,23601
289,23602
309,23604
334,23605
369,23610
289,23621
349,23632
325,23644
322,23655
375,23666
309,23678
394,23690
319,23701
380,23712
368,23724
368,23736
433,23747
372,23758
459,23770
381,23781
433,23792
407,23804
374,23816
408,23827
316,23838
384,23849
299,23861
347,23873
333,23884
313,23896
374,23907
297,23918
377,23929
300,23942
347,23953
342,23964
318,23975
380,23987
302,23998
379,24010
305,24022
349,24033
348,24044
319,24055
385,24067
306,24079
383,24090
312,24101
352,24113
354,24124
322,24136
389,24147
308,24159
387,24170
328,24181
371,24193
378,24205
335,24216
401,24227
319,24239
394,24250
330,24261
363,24273
393,24285
387,24296
460,24307
297,24318
374,24330
343,24342
383,24353
401,24365
359,24376
434,24387
353,24398
429,24411
376,24422
405,24433
431,24444
392,24456
474,24468
402,24479
486,24491
443,24502
472,24513
501,24524
452,24537
521,24548
423,24559
474,24570
405,24582
404,24593
422,24605
361,24616
438,24628
354,24639
422,24650
378,24662
437,24749
426,24750
408,24752
390,24753
374,24755
363,24756
357,24758
383,24762
383,24774
425,24785
359,24797
440,24808
356,24819
414,24830
385,24843
380,24854
426,24865
357,24877
439,24888
357,24899
413,24911
385,24923
376,24934
429,24945
364,24956
448,24969
364,24980
413,24991
389,25003
377,25014
430,25025
358,25037
437,25049
392,25060
472,25071
453,25082
355,25094
419,25106
362,25117
446,25128
369,25140
417,25151
407,25162
387,25175
451,25186
378,25197
460,25208
390,25220
443,25231
444,25243
430,25254
503,25266
435,25277
521,25288
454,25299
497,25312
487,25323
440,25334
482,25346
379,25357
443,25369
363,25380
396,25392
398,25403
364,25414
429,25425
347,25438
422,25449
354,25460
388,25472
394,25483
357,25494
424,25506
341,25518
413,25529
349,25540
379,25551
388,25563
344,25575
414,25586
332,25597
405,25609
343,25620
369,25631
385,25644
341,25655
411,25666
324,25677
396,25689
337,25701
360,25712
384,25723
341,25735
414,25746
325,25757
390,25769
335,25781
354,25792
378,25803
323,25815
356,25902
381,25903
402,25905
411,25906
410,25908
396,25909
379,25911
336,25915
414,25926
329,25938
395,25950
361,25961
369,25972
415,25984
357,25995
441,26007
364,26018
435,26030
413,26041
422,26052
474,26063
410,26076
491,26087
400,26098
444,26109
396,26121
369,26133
402,26144
321,26156
394,26167
311,26178
369,26189
345,26202
335,26213
388,26224
316,26235
394,26247
313,26258
363,26270
342,26281
327,26293
381,26304
306,26315
384,26327
304,26339
355,26350
340,26361
320,26373
378,26384
300,26395
378,26407
302,26419
351,26430
341,26441
317,26452
375,26464
295,26476
377,26487
310,26499
359,26510
352,26521
317,26533
377,26545
294,26556
372,26567
300,26578
342,26590
357,26602
362,26613
422,26625
259,26636
336,26647
299,26658
350,26671
360,26682
326,26693
397,26704
317,26716
398,26727
335,26739
373,26750
388,26762
356,26773
435,26784
363,26796
448,26808
395,26819
436,26830
455,26842
416,26853
484,26865
388,26876
441,26888
361,26899
371,26910
378,26921
324,26934
395,26945
310,26956
386,26968
324,27054
318,27056
319,27057
330,27059
353,27061
377,27062
395,27064
384,27068
338,27079
349,27090
382,27102
325,27114
403,27125
315,27137
382,27148
340,27159
347,27171
385,27183
324,27194
404,27205
319,27216
384,27228
345,27240
349,27251
388,27262
322,27274
406,27285
331,27296
397,27309
361,27320
356,27331
397,27342
328,27354
408,27365
325,27377
386,27388
394,27400
419,27411
459,27422
315,27433
402,27446
336,27457
398,27468
377,27480
370,27491
422,27503
352,27514
436,27526
360,27537
419,27548
406,27559
400,27572
463,27583
397,27594
489,27606
420,27617
479,27628
470,27640
454,27652
504,27663
413,27674
473,27685
375,27697
408,27709
391,27720
365,27731
423,27743
345,27754
426,27765
352,27778
395,27789
390,27800
364,27811
427,27823
346,27834
425,27846
351,27857
392,27869
390,27880
358,27891
421,27904
340,27915
418,27926
349,27937
385,27949
389,27960
355,27972
422,27983
340,27995
415,28006
348,28017
382,28028
388,28041
349,28052
418,28063
332,28075
412,28086
358,28097
390,28109
401,28121
454,28207
437,28209
421,28210
408,28212
401,28213
398,28215
401,28216
454,28221
316,28232
393,28243
338,28255
417,28266
372,28278
388,28290
419,28301
363,28312
445,28323
364,28335
439,28347
396,28358
412,28369
452,28381
402,28392
492,28404
417,28416
494,28427
460,28438
469,28449
502,28461
425,28473
485,28484
379,28495
426,28507
379,28518
375,28529
414,28541
347,28553
427,28564
344,28575
403,28587
372,28598
367,28610
412,28621
342,28633
423,28644
339,28655
395,28666
368,28679
360,28690
407,28701
334,28712
414,28724
330,28736
386,28747
362,28759
351,28770
403,28781
328,28792
407,28805
325,28816
375,28827
358,28838
347,28850
408,28861
334,28873
411,28884
328,28896
376,28907
360,28918
340,28930
399,28942
322,28953
438,28964
384,28976
396,28987
311,28998
312,29010
404,29022
331,29033
410,29044
336,29056
380,29067
379,29079
354,29090
423,29102
347,29113
431,29124
366,29136
414,29148
427,29159
405,29170
483,29181
405,29193
488,29205
416,29216
444,29228
431,29239
372,29250
422,29261
324,29274
373,29360
389,29362
394,29363
387,29365
371,29366
352,29368
335,29369
307,29374
381,29385
324,29396
346,29408
368,29419
315,29430
389,29443
302,29454
373,29465
319,29476
338,29488
364,29499
310,29511
387,29522
299,29534
369,29545
320,29556
334,29568
365,29580
306,29591
384,29602
301,29614
377,29625
338,29637
345,29648
374,29660
310,29671
390,29682
304,29693
368,29706
329,29717
362,29728
427,29740
354,29751
356,29762
283,29774
374,29786
345,29797
348,29808
394,29819
329,29831
411,29843
331,29854
395,29865
369,29877
371,29888
426,29899
365,29912
455,29923
384,29934
454,29945
437,29957
433,29968
485,29980
407,29991
472,30003
371,30014
407,30025
370,30038
347,30049
398,30060
323,30071
403,30083
322,30094
375,30106
361,30117
346,30129
402,30140
326,30151
407,30162
328,30175
376,30186
364,30197
342,30209
401,30220
322,30231
403,30243
326,30255
369,30266
362,30277
337,30288
400,30300
321,30312
402,30323
329,30334
372,30346
371,30357
342,30369
405,30381
323,30392
407,30403
347,30414
389,30426
336,30513
347,30514
372,30516
404,30517
434,30519
453,30520
458,30522
422,30526
450,30538
324,30550
396,30561
332,30572
412,30583
360,30595
384,30607
406,30618
359,30629
439,30641
357,30652
433,30663
386,30675
414,30687
446,30698
403,30709
491,30721
418,30732
499,30744
453,30755
472,30767
499,30778
430,30789
487,30800
379,30813
433,30824
377,30835
382,30846
413,30858
353,30870
433,30881
347,30893
414,30904
370,30915
377,30926
415,30939
351,30950
430,30961
343,30972
408,30984
368,30995
370,31007
412,31019
345,31030
426,31041
341,31052
402,31064
369,31076
369,31087
412,31098
342,31110
424,31121
340,31132
398,31144
369,31156
362,31167
416,31178
351,31190
432,31202
343,31213
395,31224
370,31236
358,31247
409,31258
336,31270
425,31282
392,31293
455,31304
360,31315
315,31327
403,31339
344,31350
430,31362
351,31373
402,31384
389,31395
374,31408
437,31419
363,31430
450,31441
376,31453
431,31464
430,31476
416,31488
490,31499
419,31510
506,31521
434,31533
478,31545
463,31556
415,31567
458,31579
366,31666
349,31667
336,31669
330,31670
328,31672
336,31673
356,31675
413,31679
329,31690
404,31703
340,31714
369,31725
382,31736
334,31748
405,31759
318,31771
391,31782
328,31794
353,31805
371,31816
321,31827
396,31840
307,31851
378,31862
320,31874
343,31885
365,31896
312,31908
389,31920
305,31931
383,31942
334,31953
350,31965
370,31977
314,31988
390,32000
304,32011
375,32022
325,32034
362,32046
420,32057
348,32068
347,32079
273,32091
372,32103
335,32114
348,32125
385,32137
327,32148
407,32159
324,32172
392,32183
356,32194
368,32205
415,32217
359,32228
448,32240
374,32251
448,32263
421,32274
430,32285
475,32296
401,32309
467,32320
361,32331
400,32343
355,32354
343,32366
386,32377
315,32389
395,32400
313,32411
375,32422
348,32435
341,32446
389,32457
317,32468
397,32480
314,32491
370,32503
346,32515
333,32526
387,32537
313,32548
395,32560
313,32572
365,32583
348,32594
330,32606
387,32617
308,32628
389,32641
309,32652
359,32663
347,32674
326,32686
388,32697
311,32709
398,32720
325,32732
395,32818
396,32820
388,32821
376,32823
364,32825
356,32826
352,32828
370,32832
436,32843
389,32855
311,32867
397,32878
326,32889
405,32901
339,32912
374,32923
388,32935
351,32947
427,32958
347,32969
428,32980
369,32992
408,33004
431,33015
400,33027
487,33038
411,33049
492,33060
435,33073
460,33084
469,33095
403,33106
457,33118
353,33129
412,33141
348,33153
367,33164
391,33175
341,33186
417,33199
329,33210
401,33221
349,33232
367,33244
394,33255
339,33267
419,33278
331,33290
397,33301
349,33312
361,33324
391,33336
332,33347
413,33358
328,33370
395,33381
352,33392
362,33404
397,33416
335,33427
416,33438
330,33449
395,33461
355,33473
358,33484
404,33496
346,33507
430,33518
340,33529
397,33542
360,33553
360,33564
406,33575
338,33587
423,33599
382,33610
466,33622
390,33633
323,33644
399,33655
352,33668
439,33679
358,33690
417,33701
391,33713
384,33724
440,33736
371,33747
456,33759
381,33770
444,33781
433,33793
431,33805
498,33816
435,33827
526,33839
448,33850
502,33861
476,33873
442,33885
362,33972
386,33973
411,33975
429,33976
434,33978
427,33979
411,33981
359,33985
431,33996
345,34009
423,34020
358,34031
389,34042
401,34054
354,34065
427,34077
340,34088
413,34100
352,34111
377,34122
394,34134
345,34146
419,34157
333,34168
406,34180
347,34191
369,34203
391,34214
336,34226
412,34237
330,34248
408,34259
358,34272
371,34283
393,34294
335,34306
412,34317
324,34328
392,34340
347,34352
402,34363
440,34374
320,34385
361,34397
306,34409
394,34420
354,34432
363,34443
401,34454
338,34465
421,34478
337,34489
408,34500
373,34511
384,34523
431,34535
373,34546
464,34557
389,34569
462,34580
434,34591
438,34604
481,34615
402,34626
464,34637
355,34649
394,34660
353,34672
340,34683
386,34695
315,34706
395,34717
311,34728
369,34741
344,34752
336,34763
385,34775
309,34786
389,34797
305,34809
358,34821
337,34832
322,34843
378,34854
299,34866
380,34878
298,34889
350,34900
335,34912
316,34923
378,34935
299,34947
380,34958
300,34969
349,34980
344,34992
328,35004
390,35015
305,35026
381,35038
358,35125
338,35127
320,35128
314,35130
323,35131
339,35133
355,35134
348,35139
307,35150
348,35162
375,35173
328,35184
405,35195
321,35208
397,35219
347,35230
370,35241
402,35253
354,35264
440,35276
364,35288
446,35299
407,35310
433,35321
470,35334
417,35345
494,35356
398,35367
449,35379
383,35390
374,35402
396,35414
329,35425
405,35436
315,35447
381,35459
343,35471
348,35482
388,35493
325,35505
405,35516
320,35527
386,35539
350,35551
350,35562
393,35573
326,35585
407,35596
319,35608
379,35619
349,35631
348,35642
396,35653
327,35664
408,35677
324,35688
383,35699
355,35710
346,35722
398,35734
332,35745
423,35757
343,35768
395,35779
369,35790
357,35803
410,35814
336,35825
415,35836
336,35848
434,35859
433,35871
356,35883
381,35894
330,35905
428,35916
353,35928
405,35940
395,35951
379,35962
445,35974
372,35985
457,35996
385,36008
440,36020
442,36031
428,36042
503,36054
434,36066
524,36077
453,36088
503,36100
498,36111
460,36122
508,36134
404,36146
464,36157
380,36168
414,36179
414,36191
435,36278
415,36280
397,36281
381,36283
373,36284
368,36286
371,36287
431,36292
373,36303
452,36315
364,36326
432,36338
385,36349
396,36361
430,36372
370,36383
450,36395
362,36407
430,36418
388,36429
395,36441
428,36452
364,36463
449,36475
367,36487
434,36498
390,36509
390,36520
431,36533
363,36544
444,36555
358,36567
432,36578
445,36589
451,36601
410,36613
321,36624
437,36635
366,36646
430,36658
402,36670
398,36681
447,36692
379,36704
464,36715
384,36726
448,36739
428,36750
427,36761
487,36772
423,36784
516,36795
442,36807
505,36818
485,36830
466,36841
508,36852
411,36865
470,36876
371,36887
410,36898
387,36910
364,36921
422,36933
343,36944
425,36956
346,36967
394,36978
385,36989
360,37002
419,37013
336,37024
415,37036
337,37047
381,37058
373,37070
342,37082
405,37093
321,37104
400,37115
326,37127
367,37139
362,37150
328,37161
394,37173
311,37184
394,37195
325,37208
364,37219
360,37230
318,37241
385,37253
300,37265
376,37276
306,37287
349,37299
397,37310
358,37321
354,37334
252,37345
384,37432
396,37433
396,37435
385,37436
368,37438
350,37439
333,37441
314,37445
383,37456
346,37469
362,37480
408,37491
354,37502
446,37514
367,37525
439,37537
402,37549
403,37560
434,37571
348,37582
406,37594
302,37606
349,37617
309,37628
303,37640
349,37651
280,37662
361,37675
275,37686
334,37697
305,37708
300,37720
348,37731
272,37743
352,37754
266,37766
322,37777
298,37788
286,37800
341,37812
266,37823
343,37834
260,37846
315,37857
298,37869
282,37880
339,37892
261,37903
342,37914
258,37925
308,37938
300,37949
290,37960
349,37971
267,37983
343,37994
265,38006
312,38018
301,38029
275,38040
346,38051
311,38063
421,38075
283,38086
295,38097
307,38109
290,38120
361,38132
283,38144
364,38155
291,38166
335,38177
339,38189
313,38201
386,38212
308,38223
395,38235
337,38246
387,38257
404,38269
379,38281
456,38292
376,38303
455,38315
376,38326
391,38338
380,38349
323,38361
383,38372
292,38383
368,38394
304,38407
337,38418
352,38429
310,38440
384,38452
303,38463
379,38475
317,38487
344,38498
312,38585
326,38586
350,38588
375,38590
393,38591
399,38593
393,38594
342,38598
386,38610
319,38622
402,38633
317,38644
380,38656
351,38668
350,38679
399,38690
336,38702
424,38713
340,38724
393,38736
361,38748
356,38759
408,38770
339,38781
423,38793
357,38805
460,38816
443,38828
340,38839
393,38850
351,38861
445,38874
368,38885
423,38896
405,38907
393,38919
453,38930
381,38942
470,38953
396,38965
457,38976
450,38987
442,39000
515,39011
447,39022
539,39033
468,39045
521,39056
508,39068
470,39079
514,39091
412,39102
477,39113
391,39124
434,39137
427,39148
398,39159
464,39171
382,39182
460,39193
385,39205
429,39217
430,39228
397,39239
466,39250
382,39262
458,39274
386,39285
421,39297
425,39308
386,39319
455,39330
369,39343
445,39354
376,39365
410,39376
421,39388
379,39400
450,39411
363,39422
440,39434
383,39445
418,39456
430,39469
377,39480
447,39491
359,39502
434,39514
372,39525
398,39537
438,39548
420,39560
488,39571
314,39582
394,39593
370,39606
401,39617
428,39628
375,39640
452,39651
421,39738
409,39740
403,39741
402,39743
411,39744
432,39746
458,39747
499,39752
422,39763
490,39775
469,39786
464,39797
511,39810
424,39821
485,39832
376,39843
416,39855
380,39866
363,39878
413,39889
335,39901
416,39912
333,39923
386,39934
367,39947
351,39958
406,39969
327,39981
407,39992
322,40004
373,40015
357,40027
335,40038
394,40049
315,40060
395,40073
314,40084
359,40095
346,40107
320,40118
384,40129
304,40141
382,40153
303,40164
348,40175
339,40186
308,40198
381,40210
307,40221
389,40232
308,40244
346,40255
342,40266
307,40279
373,40290
288,40301
369,40312
337,40324
394,40335
365,40347
271,40358
363,40370
294,40381
377,40392
311,40404
346,40416
355,40427
318,40438
393,40450
311,40461
392,40473
332,40484
370,40496
393,40507
359,40518
444,40529
367,40542
450,40553
392,40564
420,40576
428,40587
363,40598
417,40610
313,40622
375,40633
307,40644
327,40655
348,40667
296,40679
374,40690
287,40701
361,40713
307,40724
327,40736
352,40748
297,40759
376,40770
286,40781
356,40793
305,40805
367,40891
353,40893
334,40895
316,40896
300,40898
289,40899
284,40901
318,40905
309,40916
362,40928
288,40940
371,40951
289,40963
344,40974
325,40985
310,40996
368,41009
292,41020
377,41031
302,41042
360,41054
346,41065
324,41077
378,41089
299,41100
382,41111
302,41122
352,41134
358,41146
375,41157
452,41168
294,41180
367,41191
317,41202
372,41214
370,41226
346,41237
415,41248
336,41260
420,41272
351,41283
397,41294
402,41306
380,41317
456,41328
385,41340
476,41352
415,41363
466,41374
477,41385
448,41397
516,41409
419,41420
480,41432
390,41443
409,41454
406,41465
359,41478
430,41489
344,41500
422,41511
357,41523
391,41534
405,41546
363,41558
437,41569
352,41580
428,41591
365,41603
394,41615
409,41626
362,41637
438,41649
349,41660
423,41672
365,41683
390,41695
413,41706
361,41717
438,41729
349,41741
422,41752
368,41763
389,41775
416,41786
360,41797
439,41809
350,41821
422,41832
375,41843
397,41854
432,41866
372,41878
446,41889
355,41901
425,41912
378,41923
388,41934
425,41947
394,41958
414,42045
438,42046
454,42048
457,42049
449,42051
431,42052
412,42054
374,42058
461,42070
382,42082
441,42093
428,42104
414,42116
480,42127
410,42138
501,42150
432,42162
493,42173
490,42184
474,42195
541,42208
455,42219
522,42230
421,42242
447,42253
423,42264
385,42276
444,42288
357,42299
436,42310
361,42321
402,42333
401,42345
369,42356
436,42368
348,42379
427,42390
353,42401
388,42414
391,42425
352,42436
420,42447
334,42459
412,42470
342,42482
378,42493
384,42505
342,42516
411,42527
323,42540
399,42551
330,42562
362,42573
375,42585
328,42596
404,42608
319,42619
402,42631
341,42642
367,42653
375,42664
323,42677
398,42688
312,42699
387,42711
330,42722
387,42733
423,42745
340,42757
353,42768
288,42779
386,42790
336,42802
356,42814
383,42825
328,42836
411,42848
326,42859
401,42870
354,42883
375,42894
412,42905
363,42916
453,42928
376,42940
456,42951
417,42962
431,42974
466,42985
395,42996
458,43009
348,43020
395,43031
338,43042
334,43054
371,43065
303,43077
385,43088
296,43100
359,43111
295,43198
294,43200
304,43201
326,43203
352,43204
373,43206
383,43207
347,43212
337,43224
312,43235
372,43246
289,43257
372,43269
295,43281
340,43292
335,43303
305,43315
370,43326
288,43337
368,43350
291,43361
332,43372
335,43383
312,43395
388,43406
301,43418
374,43429
299,43441
337,43452
342,43463
305,43475
375,43487
315,43498
430,43509
376,43521
326,43532
331,43544
311,43555
394,43567
311,43578
390,43589
325,43600
358,43613
376,43624
335,43635
415,43646
333,43658
419,43669
366,43681
401,43693
434,43704
396,43715
483,43726
401,43738
481,43750
418,43761
427,43772
432,43784
357,43795
418,43807
320,43819
388,43830
335,43841
353,43852
383,43864
327,43876
409,43887
321,43898
392,43910
346,43921
357,43932
390,43944
332,43956
412,43967
324,43978
393,43990
346,44001
356,44013
394,44024
332,44036
415,44047
328,44058
394,44069
355,44082
360,44093
403,44104
335,44115
417,44127
334,44138
406,44150
374,44162
370,44173
411,44184
341,44195
422,44208
334,44219
398,44230
374,44241
418,44253
479,44264
402,44351
384,44353
370,44354
361,44356
358,44357
363,44359
381,44360
446,44365
365,44377
450,44388
382,44399
429,44411
439,44423
414,44434
498,44445
425,44456
518,44468
452,44480
494,44491
499,44503
451,44514
508,44525
399,44536
461,44549
378,44560
404,44571
411,44582
367,44594
442,44605
354,44617
432,44628
367,44640
397,44651
413,44662
367,44674
442,44686
350,44697
425,44708
363,44720
384,44731
404,44743
354,44754
431,44766
341,44777
414,44788
358,44800
378,44812
401,44823
346,44834
428,44846
341,44857
419,44868
367,44880
377,44892
403,44903
342,44914
421,44925
333,44937
404,44949
371,44960
417,44972
442,44983
293,44994
380,45005
325,45018
407,45029
367,45040
375,45051
415,45063
352,45075
436,45086
349,45097
419,45109
386,45120
395,45131
446,45144
388,45155
480,45166
403,45177
475,45189
445,45200
445,45212
486,45223
399,45235
461,45246
353,45257
397,45268
357,45281
347,45292
396,45303
321,45315
403,45326
314,45337
373,45349
350,45361
339,45372
393,45383
315,45394
397,45406
312,45418
390,45505
388,45506
375,45508
356,45509
337,45511
320,45512
308,45514
310,45518
346,45530
351,45541
309,45553
384,45564
304,45576
385,45587
314,45598
343,45609
353,45622
310,45633
384,45644
295,45656
375,45667
353,45678
406,45690
398,45702
282,45713
371,45724
301,45735
384,45748
327,45759
352,45770
376,45782
329,45793
411,45804
326,45816
404,45828
355,45839
381,45850
415,45861
369,45873
460,45885
380,45896
460,45907
414,45919
428,45930
450,45941
374,45954
435,45965
328,45976
384,45987
331,45999
338,46010
374,46022
311,46033
393,46045
304,46056
373,46067
332,46080
337,46091
377,46102
310,46113
393,46125
303,46136
367,46148
330,46159
331,46171
376,46182
305,46193
387,46204
301,46217
364,46228
333,46239
330,46251
376,46262
304,46273
394,46285
315,46297
377,46308
343,46319
334,46330
385,46342
311,46354
394,46365
308,46376
373,46388
395,46399
398,46410
380,46423
281,46434
394,46445
324,46456
383,46468
367,46480
350,46491
413,46502
336,46514
424,46525
347,46536
405,46548
400,46560
388,46571
433,46658
455,46659
479,46661
493,46662
494,46664
483,46665
464,46667
405,46671
461,46684
354,46695
417,46706
350,46717
374,46729
395,46740
345,46752
425,46764
336,46775
411,46786
354,46797
375,46809
399,46821
344,46832
424,46843
333,46855
405,46866
354,46877
369,46889
400,46901
343,46912
423,46923
335,46935
405,46947
355,46958
364,46969
401,46981
341,46992
429,47003
343,47015
411,47027
359,47038
363,47049
403,47060
337,47072
422,47084
333,47095
422,47107
425,47118
422,47129
368,47140
304,47153
421,47164
344,47175
412,47186
380,47198
380,47209
431,47221
361,47233
450,47244
368,47255
436,47266
413,47278
413,47290
476,47301
411,47312
505,47324
428,47335
491,47347
470,47358
455,47370
497,47381
398,47392
462,47404
361,47416
406,47427
380,47438
361,47450
419,47461
340,47472
424,47484
342,47496
394,47507
381,47518
358,47529
421,47541
339,47553
421,47564
339,47576
384,47587
375,47598
346,47609
412,47622
327,47633
408,47644
328,47655
372,47667
371,47679
338,47690
406,47702
318,47713
401,47724
320,47811
313,47813
313,47814
324,47816
346,47817
372,47819
393,47820
385,47825
333,47837
392,47848
435,47859
330,47870
363,47882
298,47894
391,47905
345,47917
358,47928
392,47939
333,47951
418,47963
333,47974
407,47985
367,47996
382,48008
430,48020
373,48031
465,48043
385,48054
463,48065
429,48076
437,48089
475,48100
396,48111
460,48122
351,48134
398,48145
352,48157
343,48168
387,48180
315,48191
398,48202
309,48214
369,48226
340,48237
336,48248
388,48260
313,48271
396,48283
310,48294
369,48306
342,48317
331,48328
384,48339
306,48352
392,48363
307,48374
362,48386
342,48397
326,48408
385,48420
306,48432
390,48443
309,48454
362,48465
347,48477
325,48489
384,48500
301,48512
385,48523
311,48534
369,48545
361,48558
332,48569
394,48580
309,48591
391,48603
312,48614
357,48626
362,48637
375,48649
465,48660
315,48671
370,48684
316,48695
368,48706
374,48717
339,48729
410,48740
326,48752
411,48763
344,48775
385,48786
397,48797
365,48808
445,48821
368,48832
459,48843
401,48855
446,48866
467,48877
397,48964
376,48966
357,48967
342,48969
334,48970
330,48972
334,48973
400,48978
335,48990
417,49001
329,49012
397,49025
357,49036
361,49047
404,49058
335,49070
418,49081
330,49093
394,49104
358,49116
357,49127
403,49138
330,49149
414,49162
326,49173
390,49184
360,49196
354,49207
405,49219
331,49230
418,49242
330,49253
387,49264
362,49275
353,49288
407,49299
330,49310
412,49321
329,49333
390,49344
376,49356
363,49368
417,49379
332,49390
415,49401
334,49413
386,49425
371,49436
357,49447
470,49459
405,49470
422,49481
297,49494
378,49505
387,49516
366,49527
433,49539
350,49550
437,49562
362,49573
410,49585
411,49596
385,49607
461,49619
382,49631
474,49642
409,49653
463,49665
476,49676
448,49688
524,49699
434,49711
506,49722
416,49733
432,49744
418,49757
366,49768
433,49779
339,49790
418,49802
349,49813
383,49825
397,49837
350,49848
425,49859
337,49870
415,49882
351,49894
377,49905
394,49916
342,49928
419,49939
328,49951
404,49963
345,49974
367,49985
388,49996
333,50008
413,50020
322,50031
403,50118
411,50119
407,50121
392,50122
373,50124
354,50125
337,50127
322,50131
388,50143
364,50154
358,50166
410,50178
328,50189
410,50200
321,50211
378,50224
353,50235
345,50246
434,50257
379,50269
443,50280
280,50292
354,50304
362,50315
351,50326
413,50337
333,50349
420,50361
340,50372
395,50383
386,50395
370,50406
437,50417
362,50429
454,50441
382,50452
440,50463
443,50475
426,50486
501,50498
418,50509
495,50521
400,50532
425,50543
402,50555
354,50567
411,50578
319,50589
399,50600
325,50612
368,50624
371,50635
335,50647
409,50658
320,50669
400,50680
329,50693
363,50704
371,50715
330,50726
403,50738
313,50749
390,50761
324,50772
354,50784
368,50795
322,50806
399,50818
310,50830
388,50841
324,50852
349,50864
367,50875
318,50886
399,50898
309,50910
385,50921
328,50932
347,50944
371,50956
321,50967
411,50978
325,50990
394,51001
334,51012
348,51024
378,51036
321,51047
399,51058
312,51069
426,51081
402,51093
385,51104
362,51116
315,51127
414,51138
328,51149
398,51162
355,51173
365,51184
382,51271
403,51272
431,51274
456,51275
470,51277
471,51278
461,51280
411,51284
485,51297
412,51308
503,51319
422,51331
469,51342
440,51353
396,51365
441,51377
343,51388
415,51399
331,51410
378,51422
372,51434
343,51445
412,51457
327,51468
409,51479
333,51491
376,51503
376,51514
342,51525
413,51536
326,51548
406,51560
332,51571
371,51582
376,51594
338,51605
409,51616
320,51629
400,51640
330,51651
364,51662
377,51674
333,51685
410,51697
321,51708
400,51720
334,51731
364,51742
380,51753
331,51766
415,51777
334,51788
413,51800
349,51811
368,51822
386,51834
333,51846
411,51857
320,51868
403,51879
396,51892
435,51903
395,51914
293,51926
405,51937
334,51948
411,51960
360,51972
377,51983
412,51994
355,52005
442,52017
354,52029
429,52040
388,52051
406,52063
453,52074
399,52085
496,52098
416,52109
494,52120
455,52131
459,52143
492,52154
406,52166
470,52177
359,52189
412,52200
368,52211
364,52224
410,52235
337,52246
421,52257
332,52269
397,52280
366,52292
362,52303
413,52315
337,52326
420,52337
334,52424
325,52426
321,52427
324,52429
340,52430
365,52432
391,52433
404,52439
330,52450
370,52461
371,52472
335,52484
406,52496
317,52507
398,52518
326,52530
362,52541
370,52552
333,52564
413,52576
324,52587
399,52598
325,52610
357,52621
372,52633
326,52644
403,52656
324,52667
443,52678
380,52689
329,52702
338,52713
321,52724
413,52736
325,52747
403,52758
347,52770
371,52782
400,52793
348,52804
432,52815
346,52828
426,52839
380,52850
408,52861
450,52873
401,52884
494,52896
410,52908
488,52919
436,52930
437,52941
451,52953
366,52965
431,52976
329,52987
391,52999
346,53010
352,53021
395,53033
328,53045
413,53056
323,53067
387,53079
348,53090
348,53102
392,53113
320,53125
405,53136
318,53147
379,53159
346,53171
337,53182
386,53193
313,53204
399,53216
312,53228
371,53239
345,53251
336,53262
391,53273
313,53284
397,53297
311,53308
367,53319
346,53330
331,53342
398,53353
325,53365
410,53377
321,53388
370,53399
354,53410
332,53422
396,53434
311,53445
399,53456
364,53468
440,53479
385,53490
406,53577
387,53579
369,53580
353,53582
342,53583
337,53585
337,53586
399,53592
354,53603
435,53614
350,53625
435,53638
385,53649
421,53660
457,53671
415,53683
503,53694
416,53706
492,53718
429,53729
432,53740
440,53751
361,53763
428,53775
327,53786
396,53797
347,53809
361,53820
397,53832
335,53843
416,53855
323,53866
393,53877
349,53889
358,53901
397,53912
330,53923
414,53935
322,53946
389,53957
347,53969
350,53981
395,53992
328,54003
413,54014
321,54026
386,54038
353,54049
349,54061
397,54072
323,54083
408,54094
321,54107
382,54118
356,54129
353,54140
413,54152
335,54163
413,54175
325,54187
384,54198
360,54209
346,54220
406,54233
350,54244
475,54255
388,54266
345,54278
336,54289
349,54301
420,54312
340,54324
428,54335
345,54346
398,54358
389,54370
370,54381
441,54392
363,54404
454,54415
383,54426
439,54438
443,54450
425,54461
507,54472
426,54483
509,54495
430,54507
461,54518
440,54530
384,54541
439,54552
339,54564
415,54576
339,54587
377,54598
385,54609
345,54621
420,54633
332,54644
401,54731
414,54732
413,54734
402,54735
383,54737
363,54738
345,54740
322,54745
392,54756
345,54767
353,54779
392,54791
325,54802
409,54813
317,54824
384,54837
342,54848
345,54859
395,54871
333,54882
421,54893
327,54905
385,54917
347,54928
344,54939
392,54950
318,54962
407,54974
360,54985
436,54996
365,55008
294,55019
374,55030
323,55043
413,55054
328,55065
387,55076
366,55088
356,55099
417,55111
342,55122
433,55134
353,55145
416,55156
408,55169
402,55180
476,55191
405,55202
500,55214
418,55225
469,55237
448,55248
407,55260
450,55271
346,55282
417,55293
329,55306
371,55317
364,55328
333,55340
405,55351
320,55362
403,55374
327,55386
370,55397
370,55408
336,55419
407,55431
319,55443
398,55454
323,55465
362,55477
368,55488
327,55499
400,55512
312,55523
390,55534
322,55545
355,55557
365,55569
322,55580
396,55591
306,55603
390,55614
333,55625
365,55638
381,55649
327,55660
401,55671
311,55683
388,55694
328,55706
351,55717
413,55729
391,55740
465,55751
294,55762
377,55775
341,55786
364,55797
350,55883
360,55884
382,55886
409,55887
433,55889
445,55891
445,55892
397,55897
434,55909
385,55920
477,55931
398,55943
481,55954
436,55965
453,55977
482,55989
407,56000
471,56011
359,56023
413,56035
358,56046
361,56057
398,56069
333,56080
419,56091
331,56103
399,56115
356,56126
360,56137
402,56148
333,56160
416,56172
324,56183
389,56195
356,56206
352,56217
400,56228
327,56241
413,56252
325,56263
387,56274
357,56286
348,56297
400,56309
324,56321
410,56332
323,56343
379,56354
356,56367
347,56378
412,56389
337,56400
419,56412
326,56423
378,56435
361,56446
343,56458
403,56469
322,56480
434,56492
384,56504
432,56515
334,56526
324,56538
414,56549
336,56560
420,56572
342,56584
391,56595
386,56606
361,56617
436,56629
357,56641
445,56652
375,56664
429,56675
439,56686
416,56697
499,56710
421,56721
509,56732
436,56743
469,56755
462,56767
404,56778
456,56790
351,56801
421,56812
346,56823
377,56836
387,56847
344,56858
422,56869
332,56881
413,56892
348,56904
377,56915
394,56927
345,56938
423,56949
400,57032
381,57034
361,57035
344,57037
332,57038
325,57040
324,57041
381,57047
337,57058
414,57069
322,57080
402,57092
338,57104
367,57115
384,57126
340,57138
425,57149
336,57160
408,57172
342,57184
365,57195
389,57206
335,57218
414,57230
328,57241
455,57252
410,57264
354,57275
352,57286
324,57298
425,57310
337,57321
412,57332
361,57344
378,57355
413,57367
356,57378
442,57390
354,57401
433,57412
396,57423
412,57436
463,57447
409,57458
504,57469
419,57481
491,57492
451,57504
443,57516
464,57527
372,57538
440,57549
336,57561
395,57573
357,57584
353,57595
401,57607
326,57618
413,57630
324,57641
387,57653
356,57664
347,57675
400,57687
323,57699
407,57710
318,57721
373,57733
348,57744
334,57755
392,57767
311,57779
397,57790
310,57801
367,57812
349,57824
329,57836
391,57847
308,57859
394,57870
309,57881
360,57892
354,57905
337,57916
406,57927
316,57938
396,57950
313,57962
359,57973
354,57985
324,57996
397,58007
353,58018
450,58031
326,58042
320,58053
348,58064
333,58076
410,58087
323,58099
363,58182
386,58183
414,58185
437,58186
447,58188
444,58189
431,58191
379,58195
458,58207
382,58218
477,58230
410,58242
460,58253
462,58264
423,58275
483,58287
375,58299
435,58310
345,58321
373,58333
375,58344
331,58355
404,58368
314,58379
396,58390
330,58401
365,58413
378,58424
332,58436
409,58447
318,58459
395,58470
330,58481
357,58493
377,58505
326,58516
404,58527
312,58539
388,58550
328,58562
353,58573
378,58585
323,58596
404,58607
311,58618
385,58631
331,58642
351,58653
382,58664
320,58676
405,58687
321,58699
398,58711
350,58722
359,58733
389,58744
322,58756
406,58768
315,58779
384,58790
344,58802
396,58813
466,58824
357,58836
391,58848
314,58859
393,58870
362,58882
365,58894
411,58905
343,58916
431,58928
344,58939
413,58950
387,58962
389,58974
447,58985
383,58996
480,59008
402,59019
475,59031
455,59042
450,59054
507,59065
420,59076
488,59087
380,59100
417,59111
382,59122
358,59133
416,59145
333,59156
418,59168
333,59180
387,59191
372,59202
351,59213
414,59226
332,59237
417,59248
379,59331
360,59332
343,59334
332,59335
327,59337
328,59338
340,59340
410,59344
329,59356
413,59368
326,59379
380,59390
364,59402
347,59413
409,59425
328,59437
413,59448
328,59459
378,59470
367,59482
348,59494
421,59505
337,59516
419,59528
335,59539
379,59550
376,59563
343,59574
414,59585
334,59596
465,59608
411,59619
401,59631
341,59642
330,59654
425,59665
341,59676
425,59687
352,59700
390,59711
403,59722
365,59734
445,59745
360,59756
448,59768
387,59780
430,59791
453,59802
418,59813
509,59826
424,59837
510,59848
446,59859
467,59871
470,59882
397,59894
456,59906
348,59917
415,59928
350,59939
371,59951
396,59963
340,59974
422,59985
331,59997
406,60008
352,60019
369,60032
401,60043
340,60054
421,60065
326,60077
395,60088
345,60100
355,60111
389,60123
325,60134
410,60145
318,60157
388,60169
343,60180
350,60191
392,60203
323,60214
407,60226
316,60237
383,60249
344,60260
346,60271
399,60282
331,60295
416,60306
317,60317
376,60328
341,60340
337,60351
388,60363
313,60375
413,60386
367,60397
361,60480
388,60482
409,60483
416,60485
412,60486
396,60488
377,60489
332,60494
421,60506
333,60517
403,60528
373,60539
375,60551
432,60563
366,60574
464,60585
386,60597
459,60608
441,60619
438,60632
493,60643
409,60654
478,60665
368,60677
403,60688
364,60700
341,60711
395,60723
314,60734
398,60745
312,60758
368,60769
352,60780
333,60791
396,60803
312,60814
396,60826
312,60837
362,60849
353,60860
327,60871
394,60882
307,60895
390,60906
309,60917
357,60929
353,60940
322,60951
392,60963
305,60975
389,60986
312,60997
353,61008
356,61020
320,61032
394,61043
306,61054
386,61066
315,61077
360,61089
375,61101
333,61112
404,61123
309,61134
388,61146
319,61158
351,61169
368,61180
328,61192
452,61203
388,61214
416,61227
308,61238
353,61249
387,61260
341,61272
422,61283
331,61295
407,61306
352,61318
379,61329
408,61340
360,61351
448,61364
366,61375
451,61386
407,61398
436,61409
478,61420
426,61432
514,61444
421,61455
484,61466
416,61477
407,61490
425,61501
348,61512
426,61523
330,61535
399,61546
363,61629
347,61631
337,61632
332,61634
334,61635
348,61637
373,61638
423,61643
331,61655
402,61666
354,61677
365,61689
401,61701
337,61712
420,61723
328,61734
396,61746
352,61758
360,61769
401,61780
333,61792
417,61803
327,61814
394,61827
355,61838
356,61849
402,61860
331,61872
420,61883
338,61895
405,61906
371,61918
358,61929
408,61940
332,61952
417,61964
328,61975
392,61986
396,61998
422,62009
466,62021
300,62032
402,62044
342,62055
405,62066
386,62077
370,62090
431,62101
352,62112
441,62124
360,62135
417,62146
408,62158
392,62170
466,62181
391,62192
489,62203
420,62215
481,62227
480,62238
455,62249
516,62261
418,62272
482,62283
379,62296
408,62307
394,62318
356,62329
424,62341
335,62352
418,62364
344,62375
386,62387
389,62398
350,62409
425,62422
334,62433
414,62444
343,62455
377,62467
386,62478
342,62490
420,62501
329,62513
407,62524
339,62535
370,62546
384,62559
336,62570
413,62581
320,62593
400,62604
333,62615
357,62627
377,62639
325,62650
412,62661
327,62672
405,62684
344,62696
438,62779
458,62780
465,62782
461,62783
446,62785
426,62786
406,62788
369,62792
362,62803
298,62815
358,62827
389,62838
341,62850
419,62861
329,62872
407,62883
352,62896
380,62907
410,62918
359,62929
446,62941
361,62952
447,62964
405,62976
435,62987
475,62998
422,63009
508,63022
411,63033
471,63044
400,63055
389,63067
407,63078
329,63090
407,63101
312,63113
383,63124
339,63135
345,63147
389,63159
321,63170
406,63181
315,63193
382,63204
342,63215
341,63227
388,63239
314,63250
397,63261
307,63272
371,63284
339,63296
331,63307
383,63319
307,63330
393,63341
304,63353
364,63365
340,63376
331,63387
385,63398
305,63410
392,63422
307,63433
371,63444
356,63456
340,63467
395,63478
310,63491
394,63502
308,63513
361,63524
347,63536
349,63547
447,63559
374,63570
377,63582
295,63593
367,63604
366,63616
341,63628
409,63639
324,63650
411,63662
336,63673
383,63684
386,63696
359,63708
438,63719
360,63730
454,63741
390,63754
443,63765
456,63776
425,63788
500,63799
406,63810
474,63822
384,63834
398,63845
331,63928
321,63929
317,63931
320,63932
336,63934
361,63935
387,63937
401,63941
327,63952
367,63965
368,63976
332,63987
403,63998
314,64010
395,64022
325,64033
363,64045
372,64056
330,64067
404,64078
315,64091
395,64102
329,64113
361,64124
376,64136
330,64147
407,64159
318,64171
397,64182
335,64193
361,64204
382,64216
329,64228
408,64239
321,64250
404,64262
350,64273
367,64284
387,64296
329,64308
409,64319
318,64330
393,64342
346,64353
407,64365
457,64376
339,64388
385,64399
317,64410
402,64422
359,64434
370,64445
410,64456
349,64467
436,64479
350,64491
423,64502
388,64514
399,64525
448,64536
389,64547
486,64560
406,64571
486,64582
458,64593
463,64605
509,64616
430,64628
500,64640
388,64651
432,64662
388,64673
372,64685
418,64697
342,64708
429,64719
339,64731
398,64742
376,64754
365,64765
420,64777
341,64788
427,64799
340,64811
394,64823
375,64834
356,64845
412,64857
331,64868
418,64879
334,64891
387,64903
375,64914
351,64925
413,64936
329,64948
413,64960
331,64971
382,64983
375,64994
405,65075
422,65077
427,65078
419,65080
401,65081
381,65083
361,65085
328,65089
402,65100
342,65112
367,65123
387,65135
334,65146
425,65158
381,65169
464,65180
321,65191
324,65204
385,65215
340,65226
425,65238
332,65249
408,65261
359,65272
374,65284
413,65295
356,65306
445,65317
359,65330
436,65341
398,65352
416,65363
466,65375
411,65386
503,65398
415,65410
486,65421
436,65432
419,65443
439,65455
348,65467
422,65478
324,65489
384,65501
350,65512
346,65523
395,65536
323,65547
411,65558
322,65569
384,65581
356,65593
346,65604
400,65615
322,65627
407,65638
318,65649
374,65661
350,65673
335,65684
390,65695
311,65707
398,65718
314,65730
370,65741
354,65753
334,65764
392,65775
308,65786
394,65799
313,65810
363,65821
352,65832
326,65844
392,65855
315,65867
406,65879
325,65890
364,65901
356,65912
325,65924
393,65936
309,65947
393,65958
331,65970
414,65981
418,65993
303,66004
369,66016
312,66027
405,66038
337,66050
375,66062
382,66073
344,66084
420,66096
333,66107
422,66118
359,66130
397,66142
486,66220
466,66221
447,66223
431,66224
419,66226
412,66227
415,66229
475,66233
412,66244
473,66256
361,66268
419,66279
350,66290
361,66301
386,66313
327,66325
409,66336
317,66348
391,66359
341,66370
355,66381
388,66394
325,66405
408,66416
316,66427
386,66439
342,66450
349,66462
386,66473
321,66485
405,66496
314,66507
381,66520
341,66531
345,66542
388,66553
319,66565
404,66576
315,66588
380,66599
346,66611
345,66622
393,66633
320,66644
405,66657
313,66668
377,66679
357,66691
356,66702
408,66713
327,66725
408,66737
319,66748
378,66759
357,66770
345,66782
411,66794
374,66805
481,66817
333,66828
358,66839
364,66851
357,66863
421,66874
340,66885
428,66896
349,66908
401,66920
395,66931
376,66942
447,66954
370,66965
464,66976
392,66989
452,67000
458,67011
440,67022
517,67034
435,67045
522,67057
438,67068
462,67080
440,67091
382,67102
438,67113
341,67126
422,67137
347,67148
384,67160
393,67171
353,67182
426,67194
336,67206
418,67217
351,67228
382,67239
393,67252
347,67263
423,67274
330,67286
328,67366
340,67368
363,67369
389,67372
410,67373
420,67375
417,67376
365,67381
398,67392
334,67403
420,67415
327,67426
396,67437
352,67449
364,67461
411,67472
347,67483
428,67494
331,67507
396,67518
356,67529
358,67540
402,67552
335,67563
463,67575
397,67587
424,67598
318,67609
340,67620
414,67632
347,67644
435,67655
345,67666
408,67678
384,67689
379,67700
436,67713
364,67724
458,67735
377,67746
444,67758
434,67769
430,67781
496,67792
423,67804
515,67815
432,67826
481,67837
448,67850
407,67861
447,67872
349,67884
425,67895
335,67907
385,67918
374,67930
348,67941
411,67952
325,67963
412,67976
332,67987
377,67998
372,68009
341,68021
408,68032
319,68044
403,68056
326,68067
367,68078
367,68089
330,68101
402,68113
314,68124
396,68135
322,68147
358,68158
364,68169
324,68182
397,68193
306,68204
390,68215
328,68227
364,68239
375,68250
322,68261
398,68273
306,68284
385,68295
320,68307
349,68319
404,68330
378,68341
435,68353
267,68364
364,68376
331,68387
358,68399
385,68410
329,68421
412,68432
442,68515
424,68516
405,68518
389,68519
377,68521
369,68523
369,68525
428,68529
405,68541
487,68552
404,68563
493,68575
420,68586
448,68597
436,68610
373,68621
428,68632
324,68643
399,68655
327,68666
359,68678
371,68689
325,68701
402,68712
310,68723
391,68734
331,68747
358,68758
379,68769
329,68781
407,68792
311,68803
387,68815
329,68827
349,68838
374,68849
318,68860
399,68873
304,68884
381,68895
326,68907
342,68918
373,68929
316,68941
400,68953
306,68964
380,68975
338,68986
354,68998
391,69010
321,69021
401,69032
306,69044
377,69055
335,69066
338,69079
392,69090
369,69101
480,69112
313,69124
362,69135
347,69147
355,69158
402,69170
331,69181
419,69192
330,69203
399,69216
372,69227
372,69238
429,69250
361,69261
456,69273
377,69284
451,69296
437,69307
437,69318
501,69329
428,69342
514,69353
416,69364
455,69376
413,69387
376,69398
420,69410
334,69422
420,69433
336,69444
388,69455
375,69467
355,69479
418,69490
334,69501
419,69513
337,69524
384,69535
376,69548
349,69559
414,69570
327,69581
329,69664
347,69665
372,69667
397,69668
413,69670
417,69671
408,69673
354,69678
407,69689
330,69700
417,69712
327,69724
391,69735
375,69746
363,69757
414,69770
333,69781
419,69792
331,69804
387,69815
369,69826
361,69838
470,69850
401,69861
403,69872
297,69883
381,69895
383,69907
364,69918
427,69929
344,69941
436,69952
357,69963
410,69976
407,69987
385,69998
458,70009
379,70021
475,70032
406,70044
463,70055
473,70067
448,70078
521,70089
431,70100
504,70113
410,70124
427,70135
413,70147
361,70158
427,70170
333,70181
415,70193
345,70204
378,70215
389,70226
347,70239
424,70250
331,70261
413,70273
345,70284
372,70295
388,70307
338,70319
417,70330
321,70341
399,70352
338,70364
361,70376
383,70387
330,70398
412,70410
316,70421
393,70432
336,70445
355,70456
382,70467
329,70478
417,70490
326,70502
395,70513
339,70524
351,70536
383,70547
322,70558
406,70571
319,70582
437,70593
396,70604
337,70616
344,70627
309,70639
412,70650
323,70662
395,70673
356,70684
360,70695
406,70708
339,70719
428,70730
473,70812
455,70814
436,70815
421,70817
411,70818
407,70820
410,70821
476,70827
424,70838
502,70849
392,70860
449,70873
370,70884
369,70895
388,70906
325,70918
405,70929
309,70941
383,70952
334,70964
347,70975
382,70986
319,70998
404,71010
311,71021
382,71032
335,71044
339,71055
378,71067
309,71078
395,71090
303,71101
370,71112
330,71123
331,71136
379,71147
309,71158
397,71170
306,71181
370,71192
338,71204
333,71216
383,71227
308,71238
394,71249
308,71261
378,71273
354,71284
342,71296
389,71307
310,71318
396,71329
307,71342
365,71353
344,71364
363,71375
457,71387
383,71398
383,71410
301,71421
371,71433
360,71444
340,71455
401,71468
318,71479
406,71490
327,71501
383,71513
380,71524
360,71536
431,71547
355,71559
453,71570
386,71581
445,71592
450,71605
428,71616
497,71627
405,71639
477,71650
379,71661
399,71673
387,71685
345,71696
412,71707
323,71718
407,71730
335,71742
372,71753
379,71764
337,71776
412,71787
323,71799
404,71811
338,71822
368,71833
380,71844
336,71856
414,71868
321,71879
332,71961
355,71963
380,71964
402,71966
413,71967
411,71969
397,71970
342,71975
409,71987
325,71998
410,72009
331,72020
378,72033
375,72044
344,72055
415,72067
333,72078
423,72089
351,72101
388,72113
388,72124
348,72135
421,72146
330,72158
415,72170
352,72181
440,72193
465,72204
349,72215
394,72226
333,72239
428,72250
364,72261
398,72272
413,72284
370,72296
451,72307
363,72318
447,72330
389,72341
420,72352
448,72365
406,72376
497,72387
416,72398
504,72410
454,72421
481,72433
504,72444
442,72456
507,72467
393,72478
450,72489
380,72502
387,72513
414,72524
352,72536
435,72547
342,72558
415,72570
367,72582
378,72593
415,72604
349,72615
432,72627
339,72639
410,72650
367,72662
371,72673
411,72684
340,72696
424,72708
331,72719
397,72730
359,72741
360,72753
407,72765
335,72776
422,72787
328,72799
395,72810
363,72821
357,72834
405,72845
329,72856
416,72867
333,72879
401,72890
375,72902
357,72913
406,72925
323,72936
408,72947
318,72958
377,72971
366,72982
396,72993
458,73005
296,73016
369,73028
401,73110
381,73111
363,73113
349,73114
340,73116
338,73118
346,73119
417,73123
353,73136
446,73147
360,73158
437,73169
408,73181
419,73192
475,73204
411,73216
505,73227
415,73238
474,73249
429,73262
402,73273
431,73284
338,73295
413,73307
315,73318
375,73330
350,73341
340,73353
395,73364
316,73375
403,73387
315,73399
373,73410
354,73421
336,73433
393,73444
309,73455
395,73467
307,73479
359,73490
345,73501
324,73512
386,73524
302,73536
390,73547
306,73559
355,73570
345,73581
317,73593
383,73605
297,73616
385,73627
306,73638
353,73650
350,73662
318,73673
388,73684
308,73696
398,73707
323,73718
360,73731
359,73742
319,73753
392,73764
303,73776
384,73787
320,73799
402,73810
439,73822
347,73833
380,73844
305,73856
398,73868
334,73879
367,73890
384,73902
342,73913
421,73924
333,73936
417,73948
360,73959
392,73970
419,73981
378,73994
469,74005
389,74016
480,74028
429,74039
453,74050
478,74062
413,74074
477,74085
363,74096
419,74107
351,74119
359,74131
387,74142
328,74153
414,74165
322,74176
342,74259
367,74260
392,74262
410,74263
415,74265
408,74266
390,74268
337,74272
410,74284
318,74296
398,74307
334,74318
364,74330
382,74341
335,74352
411,74364
318,74376
397,74387
338,74398
361,74409
384,74422
331,74433
411,74444
320,74456
398,74467
341,74478
358,74490
387,74502
331,74513
422,74524
336,74535
408,74547
352,74559
363,74570
395,74582
334,74593
417,74604
325,74615
410,74628
410,74639
435,74650
393,74661
313,74673
422,74684
339,74696
413,74707
372,74719
378,74730
425,74741
361,74753
450,74765
360,74776
430,74787
402,74799
407,74810
465,74822
403,74833
505,74845
424,74856
495,74867
470,74878
464,74891
506,74902
407,74913
472,74925
364,74936
410,74947
379,74959
361,74971
417,74982
337,74993
425,75004
339,75016
395,75028
377,75039
359,75051
420,75062
338,75073
424,75084
339,75097
392,75108
378,75119
352,75130
415,75142
329,75154
415,75165
333,75176
379,75188
371,75199
345,75210
414,75223
327,75234
412,75245
332,75256
372,75268
373,75279
339,75291
412,75302
327,75314
418,75325
373,75408
354,75409
338,75411
327,75412
321,75414
323,75415
339,75417
425,75421
386,75432
471,75444
288,75456
350,75467
365,75479
354,75490
418,75501
339,75512
428,75525
344,75536
398,75547
390,75558
369,75570
440,75581
362,75593
458,75604
385,75616
443,75627
451,75638
433,75651
508,75662
422,75673
505,75684
414,75696
437,75707
416,75719
361,75730
419,75742
323,75753
405,75764
332,75776
371,75788
378,75799
338,75810
413,75822
321,75833
403,75844
335,75856
366,75868
375,75879
326,75890
402,75901
308,75913
387,75925
322,75936
351,75948
370,75959
320,75970
397,75982
304,75994
383,76005
321,76016
344,76027
369,76039
315,76051
395,76062
301,76073
380,76085
329,76096
352,76107
383,76120
319,76131
399,76142
304,76153
379,76165
330,76176
343,76188
404,76199
369,76211
447,76222
273,76233
354,76244
339,76257
353,76268
396,76279
331,76291
418,76302
329,76313
401,76325
367,76337
372,76348
423,76359
358,76370
452,76383
369,76394
448,76405
428,76417
433,76428
490,76439
418,76451
501,76463
399,76474
400,76560
410,76561
408,76563
394,76564
374,76566
354,76567
337,76569
318,76573
384,76584
351,76596
348,76608
397,76619
324,76631
409,76642
317,76653
379,76665
350,76677
343,76688
395,76699
320,76710
409,76722
320,76734
380,76745
355,76756
341,76768
397,76779
317,76790
404,76803
317,76814
373,76825
354,76836
335,76848
396,76859
319,76871
415,76882
333,76894
385,76905
367,76916
339,76928
403,76940
318,76951
406,76962
326,76974
412,76985
432,76997
392,77008
389,77020
312,77031
413,77042
339,77053
385,77066
387,77077
354,77088
429,77100
344,77111
434,77122
365,77134
410,77146
420,77157
391,77168
478,77179
401,77191
495,77203
433,77214
474,77225
485,77237
436,77248
497,77259
384,77272
446,77283
364,77294
384,77305
395,77317
347,77328
424,77340
332,77351
413,77363
349,77374
374,77385
398,77398
345,77409
424,77420
332,77431
409,77443
349,77454
367,77466
394,77477
335,77489
417,77500
319,77511
395,77522
344,77535
357,77546
388,77557
326,77569
410,77580
318,77591
391,77603
345,77615
353,77626
325,77712
342,77714
367,77715
392,77717
409,77718
414,77720
405,77722
350,77726
405,77737
374,77749
488,77760
350,77772
347,77784
346,77795
359,77806
418,77817
342,77829
430,77841
343,77852
405,77863
386,77875
374,77886
438,77898
364,77910
459,77921
382,77932
447,77943
445,77955
438,77967
509,77978
428,77989
517,78001
425,78012
459,78023
427,78035
381,78047
432,78058
337,78069
420,78081
336,78092
383,78104
381,78115
351,78127
422,78138
331,78149
415,78160
338,78173
380,78184
382,78195
343,78206
414,78218
322,78230
405,78241
331,78253
368,78264
376,78275
336,78286
410,78299
318,78310
400,78321
331,78332
360,78344
373,78355
331,78367
415,78379
326,78390
402,78401
333,78412
359,78424
379,78436
326,78447
405,78458
318,78470
442,78481
390,78492
349,78504
335,78516
311,78527
415,78538
326,78550
403,78561
351,78573
368,78584
400,78596
341,78607
431,78618
342,78630
421,78642
379,78653
401,78664
447,78675
394,78687
491,78699
404,78710
482,78722
440,78733
437,78744
459,78755
369,78768
434,78779
338,78865
325,78867
317,78868
315,78870
325,78871
347,78873
373,78874
408,78879
317,78891
378,78902
353,78913
340,78924
395,78937
313,78948
398,78959
309,78970
368,78982
349,78993
333,79005
391,79016
307,79028
394,79039
307,79050
360,79062
346,79074
323,79085
387,79096
303,79108
396,79119
321,79130
373,79142
363,79154
328,79165
394,79176
308,79187
393,79199
313,79211
366,79222
413,79234
402,79245
408,79256
289,79268
394,79280
330,79291
374,79302
382,79313
345,79325
418,79337
330,79348
418,79360
351,79371
391,79382
409,79393
371,79406
457,79417
377,79428
471,79439
416,79451
452,79462
473,79474
423,79485
492,79497
381,79508
439,79519
358,79531
371,79543
386,79554
331,79565
412,79577
320,79588
397,79600
340,79611
361,79623
389,79634
329,79645
411,79656
319,79669
394,79680
343,79691
353,79703
385,79714
322,79725
406,79737
313,79749
385,79760
340,79771
349,79782
389,79794
323,79806
409,79817
317,79828
385,79840
344,79851
347,79862
390,79875
319,79886
407,79897
323,79908
395,79920
360,79931
454,80018
442,80019
425,80021
409,80022
396,80024
389,80026
386,80027
430,80031
335,80044
383,80055
324,80066
419,80077
337,80089
391,80100
378,80112
360,80123
427,80135
348,80146
440,80157
361,80169
417,80181
417,80192
401,80203
478,80215
402,80226
500,80238
428,80249
479,80261
475,80272
433,80283
483,80294
374,80307
440,80318
350,80329
386,80340
386,80352
349,80363
423,80375
334,80387
418,80398
344,80409
382,80420
392,80432
349,80444
423,80455
331,80466
410,80478
341,80489
375,80500
388,80513
340,80524
419,80535
325,80546
406,80558
342,80570
367,80581
388,80592
336,80604
419,80615
326,80626
403,80638
342,80650
362,80661
390,80672
342,80684
432,80695
343,80707
413,80718
354,80730
368,80741
398,80752
337,80763
423,80776
342,80787
463,80798
420,80809
340,80821
364,80832
332,80844
432,80856
341,80867
412,80878
371,80889
375,80902
419,80913
354,80924
446,80935
359,80947
434,80958
405,80970
415,80982
473,80993
409,81004
507,81015
421,81027
491,81039
456,81050
442,81061
475,81073
377,81084
381,81171
405,81172
419,81174
422,81175
411,81177
392,81178
372,81180
332,81184
419,81196
334,81208
385,81219
371,81230
346,81242
411,81253
324,81264
410,81276
328,81288
373,81299
366,81310
334,81321
401,81333
313,81345
399,81356
321,81368
362,81379
363,81390
326,81401
398,81414
310,81425
400,81436
331,81447
369,81459
368,81471
324,81482
399,81494
308,81505
388,81516
320,81527
380,81540
423,81551
365,81562
359,81573
278,81585
390,81596
334,81608
365,81619
387,81631
337,81642
419,81653
331,81665
411,81677
357,81688
387,81699
421,81711
373,81722
464,81733
381,81745
468,81757
423,81768
447,81779
478,81790
414,81803
484,81814
368,81825
421,81837
357,81848
359,81859
387,81871
321,81883
407,81894
314,81905
387,81916
342,81928
346,81940
388,81951
319,81963
404,81974
310,81985
379,81996
342,82009
342,82020
387,82031
313,82042
399,82054
307,82065
371,82077
338,82088
333,82100
384,82111
308,82122
396,82134
305,82146
368,82157
342,82168
331,82180
389,82191
314,82203
408,82214
321,82226
377,82237
363,82323
366,82325
381,82326
407,82328
434,82330
454,82331
462,82333
411,82337
328,82349
313,82360
406,82371
326,82383
415,82395
339,82406
383,82417
386,82428
354,82441
429,82452
345,82463
434,82475
366,82486
415,82497
430,82509
403,82521
486,82532
406,82543
495,82554
426,82566
458,82578
456,82589
393,82600
447,82612
341,82623
410,82634
340,82647
369,82658
385,82669
338,82680
418,82692
325,82703
406,82715
345,82726
370,82738
392,82749
338,82760
419,82772
325,82784
402,82795
345,82806
363,82818
389,82829
329,82841
413,82852
319,82864
392,82875
342,82886
355,82897
392,82910
330,82921
415,82932
322,82944
393,82955
348,82966
355,82978
393,82990
327,83001
419,83012
334,83023
405,83035
362,83047
358,83058
401,83069
332,83081
417,83092
325,83103
395,83116
404,83127
424,83138
444,83149
305,83161
411,83173
339,83184
406,83195
381,83207
374,83218
430,83229
354,83241
445,83253
359,83264
423,83275
408,83287
401,83298
469,83310
398,83321
497,83333
420,83344
486,83355
474,83366
455,83379
513,83390
384,83476
364,83478
350,83479
341,83481
337,83482
343,83484
362,83485
427,83490
338,83502
423,83513
346,83524
388,83535
392,83548
354,83559
427,83570
335,83581
419,83593
345,83604
380,83616
389,83628
346,83639
423,83650
330,83661
412,83673
345,83685
374,83696
388,83707
339,83719
419,83730
325,83742
403,83753
339,83765
365,83776
385,83787
333,83799
422,83811
335,83822
415,83833
350,83845
366,83856
392,83867
334,83879
417,83891
322,83902
409,83913
405,83924
428,83936
375,83948
293,83959
413,83971
332,83982
408,83993
364,84004
375,84017
414,84028
349,84039
439,84050
349,84062
422,84074
387,84085
396,84097
448,84108
389,84119
487,84130
403,84143
480,84154
448,84165
445,84176
484,84188
391,84199
456,84211
344,84222
396,84234
360,84245
350,84256
402,84268
324,84280
413,84291
322,84302
384,84314
360,84325
346,84336
401,84348
319,84360
406,84371
315,84382
370,84393
350,84405
332,84417
392,84428
308,84440
397,84451
310,84462
363,84474
350,84486
326,84497
393,84508
304,84519
390,84531
309,84543
396,84629
394,84631
380,84632
360,84634
341,84635
323,84637
311,84638
314,84643
352,84655
359,84666
318,84677
422,84688
355,84700
421,84712
271,84723
322,84734
368,84746
328,84757
409,84768
318,84781
401,84792
337,84803
367,84814
389,84826
344,84837
431,84849
345,84860
434,84872
384,84883
418,84894
455,84905
407,84918
496,84929
403,84940
476,84952
406,84963
402,84975
412,84986
335,84998
409,85009
308,85020
381,85031
333,85044
342,85055
383,85066
319,85078
404,85089
311,85100
383,85112
341,85124
346,85135
386,85146
316,85157
401,85169
308,85181
377,85192
341,85203
340,85215
386,85226
315,85237
401,85250
308,85261
373,85272
343,85283
339,85295
390,85306
313,85318
400,85329
310,85341
371,85352
355,85363
351,85376
408,85387
324,85398
407,85409
318,85421
377,85432
359,85444
340,85455
406,85467
369,85478
482,85489
352,85500
356,85513
360,85524
351,85535
422,85547
338,85558
427,85569
346,85581
395,85593
393,85604
370,85615
444,85626
362,85638
455,85650
386,85661
440,85672
453,85684
430,85695
377,85782
401,85783
424,85785
440,85786
442,85788
432,85789
412,85791
355,85795
430,85808
336,85819
417,85830
357,85841
384,85853
404,85864
349,85876
430,85888
337,85899
415,85910
355,85921
377,85933
404,85945
344,85956
426,85967
332,85979
406,85990
354,86001
371,86013
403,86025
341,86036
425,86047
332,86059
405,86070
357,86082
367,86093
405,86105
339,86116
424,86127
333,86138
411,86151
374,86162
377,86173
417,86184
342,86196
427,86208
333,86219
398,86231
364,86242
390,86253
478,86264
389,86277
385,86288
309,86299
402,86310
381,86322
375,86333
430,86345
352,86356
441,86368
352,86379
417,86390
401,86402
391,86414
455,86425
383,86436
481,86448
404,86459
472,86470
464,86482
452,86494
518,86505
430,86516
505,86528
400,86540
431,86551
404,86562
366,86574
426,86585
334,86596
419,86608
335,86620
382,86631
379,86642
348,86653
419,86665
330,86677
417,86688
336,86700
376,86711
376,86722
338,86733
411,86746
320,86757
406,86768
329,86779
365,86791
371,86802
329,86814
403,86825
311,86837
395,86848
322,86935
313,86936
311,86938
321,86939
343,86941
369,86942
391,86944
385,86948
326,86960
346,86971
373,86983
317,86994
419,87006
359,87017
428,87028
286,87040
307,87052
374,87063
323,87074
410,87086
315,87097
390,87108
344,87120
357,87132
400,87143
338,87154
430,87165
344,87178
421,87189
388,87200
403,87212
457,87223
397,87234
491,87246
400,87258
467,87269
417,87280
396,87291
422,87303
329,87315
406,87326
308,87337
370,87349
340,87360
334,87371
386,87384
310,87395
399,87406
308,87417
369,87429
344,87440
332,87452
388,87463
305,87475
393,87486
305,87497
362,87510
343,87521
324,87532
387,87543
302,87555
388,87566
303,87578
355,87589
343,87601
321,87612
386,87623
301,87634
391,87647
316,87658
370,87669
364,87681
327,87692
389,87703
303,87715
389,87727
310,87738
354,87749
381,87760
383,87772
467,87784
293,87795
380,87806
326,87818
372,87829
380,87840
343,87853
419,87864
332,87875
419,87886
351,87898
390,87910
407,87921
371,87932
456,87944
375,87955
467,87966
411,87979
452,87990
476,88001
397,88087
376,88089
356,88090
340,88092
330,88093
325,88095
328,88096
395,88101
333,88113
418,88124
325,88135
399,88147
352,88159
365,88170
401,88181
334,88193
420,88204
324,88216
394,88227
352,88239
356,88250
398,88261
330,88272
418,88285
325,88296
391,88307
354,88318
355,88330
402,88341
329,88353
416,88365
322,88376
387,88387
360,88398
361,88411
418,88422
340,88433
421,88444
328,88456
389,88467
363,88479
351,88491
407,88502
345,88513
477,88524
395,88536
362,88548
346,88559
358,88570
427,88582
346,88593
435,88604
351,88616
406,88628
397,88639
380,88650
448,88662
371,88673
466,88685
391,88696
449,88708
453,88719
438,88730
514,88742
433,88754
524,88765
440,88776
476,88787
453,88799
397,88811
450,88822
348,88834
429,88845
350,88856
390,88867
394,88880
357,88891
432,88902
341,88913
426,88925
353,88936
386,88948
398,88960
353,88971
430,88982
336,88993
417,89005
347,89017
376,89028
391,89039
341,89051
420,89062
326,89073
408,89085
344,89097
369,89108
394,89119
345,89131
431,89143
340,89154
447,89240
467,89242
472,89243
463,89245
445,89246
427,89248
413,89249
392,89254
395,89266
304,89277
341,89288
400,89299
337,89312
425,89323
333,89334
404,89346
368,89357
372,89368
422,89380
353,89392
445,89403
361,89414
436,89425
413,89437
419,89449
480,89460
411,89472
502,89483
409,89494
463,89505
417,89518
387,89529
424,89540
330,89551
408,89563
315,89574
375,89586
353,89597
340,89609
399,89620
317,89631
403,89644
316,89655
372,89666
358,89677
333,89689
395,89700
308,89712
394,89723
307,89735
358,89746
349,89757
321,89768
389,89781
299,89792
387,89803
304,89815
348,89826
349,89837
321,89849
398,89861
311,89872
394,89883
312,89894
350,89906
353,89918
315,89929
390,89940
304,89952
433,89963
374,89974
357,89987
327,89998
309,90009
402,90020
316,90032
401,90044
335,90055
366,90066
384,90078
340,90089
424,90100
336,90113
422,90124
364,90135
401,90146
435,90158
394,90169
485,90181
400,90192
481,90204
422,90215
434,90226
442,90237
365,90250
429,90261
322,90272
391,90284
335,90295
349,90306
315,90393
331,90394
355,90396
381,90397
399,90399
405,90401
399,90402
344,90406
389,90419
316,90430
403,90441
311,90452
378,90464
342,90475
339,90487
389,90499
315,90510
403,90521
313,90532
376,90545
346,90556
335,90567
392,90578
322,90590
413,90601
323,90613
377,90625
354,90636
337,90647
397,90658
317,90670
401,90682
342,90693
434,90704
431,90716
325,90727
389,90738
324,90750
418,90762
338,90773
390,90784
381,90796
357,90807
427,90819
345,90830
439,90842
364,90853
418,90864
425,90876
403,90888
486,90899
407,90910
503,90921
430,90933
477,90945
476,90956
424,90968
477,90979
365,90990
433,91001
348,91014
381,91025
389,91036
348,91047
425,91059
332,91070
417,91082
348,91094
381,91105
397,91116
348,91127
426,91139
334,91151
414,91162
347,91173
373,91185
393,91196
341,91207
423,91219
327,91231
406,91242
347,91253
369,91265
395,91277
337,91288
421,91299
328,91311
409,91322
360,91333
382,91345
408,91357
341,91368
422,91379
326,91390
400,91402
351,91414
374,91425
464,91437
409,91448
409,91459
373,91546
359,91547
351,91549
349,91550
358,91552
379,91553
407,91555
446,91559
359,91571
428,91583
403,91594
402,91606
463,91617
395,91628
497,91639
417,91652
486,91663
465,91674
452,91685
499,91697
403,91708
471,91720
361,91731
403,91743
378,91754
354,91765
416,91778
329,91789
418,91800
334,91811
387,91823
376,91834
351,91846
415,91857
328,91869
414,91880
332,91891
379,91902
371,91915
338,91926
408,91937
319,91949
405,91960
325,91971
369,91983
369,91995
333,92006
403,92017
312,92028
397,92040
322,92052
364,92063
377,92075
340,92086
412,92097
312,92109
394,92121
325,92132
358,92143
371,92154
332,92166
454,92178
367,92189
380,92200
283,92212
344,92223
380,92234
332,92247
414,92258
322,92269
404,92280
347,92292
375,92303
403,92315
353,92326
443,92338
356,92349
442,92360
396,92371
425,92384
463,92395
412,92406
500,92418
404,92429
471,92440
401,92452
393,92464
408,92475
332,92486
412,92497
315,92510
388,92521
342,92532
347,92544
387,92555
320,92566
407,92578
314,92590
383,92601
342,92612
396,92699
380,92700
360,92702
340,92703
323,92705
310,92706
304,92708
341,92712
330,92724
386,92735
307,92747
396,92759
307,92770
366,92781
345,92792
327,92804
386,92816
305,92827
399,92838
319,92850
376,92861
359,92872
332,92884
394,92896
308,92907
396,92918
310,92930
367,92941
404,92953
403,92964
419,92976
290,92987
395,92998
328,93009
376,93022
376,93033
344,93044
415,93056
330,93067
421,93079
348,93090
396,93102
406,93113
376,93124
459,93135
381,93148
478,93159
415,93170
458,93181
471,93193
429,93204
498,93216
388,93228
451,93239
364,93250
381,93261
389,93273
337,93285
415,93296
324,93307
406,93319
344,93330
370,93341
392,93353
341,93365
421,93376
325,93387
404,93399
344,93411
364,93422
391,93433
333,93445
417,93456
321,93467
398,93479
344,93491
360,93502
393,93513
330,93524
414,93536
320,93548
394,93559
346,93571
355,93582
394,93593
328,93604
414,93617
320,93628
390,93639
351,93650
365,93662
411,93673
339,93685
421,93697
326,93708
391,93719
355,93730
352,93742
404,93754
369,93765
392,93851
417,93853
433,93854
436,93856
427,93857
409,93859
388,93860
348,93865
439,93877
354,93888
414,93899
401,93911
386,93923
458,93934
383,93945
479,93957
405,93968
471,93980
467,93991
448,94003
516,94014
427,94025
503,94036
400,94049
428,94060
405,94071
366,94083
428,94094
337,94105
425,94117
345,94129
390,94140
391,94151
353,94162
424,94174
333,94186
419,94197
343,94209
383,94220
387,94231
344,94242
415,94255
324,94266
406,94277
334,94288
369,94300
382,94312
336,94323
413,94334
319,94346
401,94357
336,94368
366,94381
382,94392
333,94403
413,94414
318,94426
397,94437
340,94449
372,94460
399,94472
341,94483
419,94494
320,94505
399,94518
343,94529
363,94540
394,94552
375,94563
485,94574
355,94586
353,94598
324,94609
364,94620
402,94631
339,94643
427,94655
335,94666
410,94678
368,94689
380,94700
423,94712
360,94724
453,94735
367,94746
448,94757
420,94769
436,94781
489,94792
423,94803
514,94815
415,94826
468,94837
411,94850
386,94861
419,94872
332,94883
414,94895
320,94906
384,94918
322,95004
321,95006
331,95007
355,95009
381,95010
403,95012
413,95013
377,95019
362,95030
338,95041
401,95052
314,95064
402,95075
315,95087
363,95098
356,95110
327,95121
395,95132
307,95143
394,95156
314,95167
358,95178
356,95190
323,95201
393,95213
305,95224
396,95236
327,95247
368,95258
368,95269
326,95282
396,95293
305,95304
390,95315
317,95327
356,95338
411,95350
388,95362
418,95373
280,95384
385,95395
330,95407
365,95419
382,95430
336,95441
416,95453
326,95464
410,95475
351,95488
383,95499
410,95510
368,95521
458,95533
376,95545
464,95556
416,95567
447,95579
479,95590
421,95601
495,95613
382,95625
438,95636
364,95647
366,95659
390,95670
326,95682
409,95693
316,95705
391,95716
344,95727
355,95738
393,95751
327,95762
413,95773
319,95784
390,95796
347,95807
349,95819
393,95831
322,95842
407,95853
312,95864
379,95876
341,95888
341,95899
390,95910
318,95922
406,95933
314,95945
380,95956
348,95968
343,95979
394,95990
317,96002
405,96014
319,96025
389,96036
368,96048
354,96059
406,96070
440,96157
419,96158
400,96160
385,96161
372,96163
363,96164
364,96166
393,96171
305,96183
415,96194
340,96205
389,96217
386,96228
358,96239
432,96251
345,96263
434,96274
360,96285
409,96296
418,96309
392,96320
474,96331
395,96343
492,96354
428,96365
475,96377
488,96389
447,96400
512,96411
401,96422
462,96434
372,96446
392,96457
398,96468
348,96480
426,96491
332,96502
415,96515
352,96526
382,96537
399,96548
347,96560
427,96571
332,96583
410,96594
348,96606
371,96617
395,96628
339,96640
419,96652
325,96663
401,96674
348,96686
366,96697
396,96709
336,96720
420,96732
324,96743
400,96754
349,96765
361,96778
399,96789
341,96800
432,96812
334,96823
400,96834
352,96846
359,96858
399,96869
330,96880
418,96891
360,96903
460,96915
390,96926
312,96937
381,96949
336,96960
429,96971
337,96984
405,96995
374,97006
372,97017
425,97029
353,97041
447,97052
360,97063
433,97075
411,97086
413,97097
482,97110
413,97121
512,97132
426,97143
487,97155
458,97166
429,97178
467,97189
363,97201
436,97212
336,97223
421,97310
422,97311
409,97313
389,97314
369,97316
351,97317
337,97319
336,97324
379,97335
377,97347
342,97358
411,97370
317,97381
402,97392
323,97403
364,97416
367,97427
328,97438
402,97449
309,97461
394,97473
321,97484
354,97496
364,97507
318,97518
400,97529
314,97542
399,97553
324,97564
351,97575
366,97587
314,97598
393,97610
297,97622
388,97633
366,97644
395,97655
342,97667
262,97679
366,97690
279,97701
359,97713
300,97724
322,97735
352,97747
294,97759
382,97770
290,97781
372,97793
325,97805
348,97816
391,97827
340,97839
439,97850
355,97861
436,97873
391,97885
398,97896
428,97907
341,97918
408,97930
295,97942
354,97953
307,97965
310,97976
355,97987
285,97998
373,98011
277,98022
346,98033
311,98044
312,98056
360,98067
286,98079
374,98091
279,98102
344,98113
316,98124
310,98136
363,98148
285,98159
375,98170
284,98182
347,98193
325,98205
314,98216
371,98228
289,98239
379,98250
299,98262
365,98274
349,98285
330,98296
387,98308
303,98319
391,98330
306,98342
361,98354
359,98365
381,98376
346,98463
371,98464
397,98466
419,98467
427,98469
423,98470
407,98472
352,98477
430,98488
343,98499
432,98511
364,98523
409,98534
425,98545
393,98556
480,98568
402,98580
497,98591
438,98603
477,98614
493,98625
441,98637
503,98649
391,98660
453,98671
373,98682
396,98694
410,98706
359,98717
440,98728
348,98740
429,98751
368,98762
393,98775
419,98786
364,98797
447,98808
355,98820
431,98831
375,98843
392,98854
422,98866
361,98877
445,98888
350,98899
424,98912
372,98923
385,98934
420,98946
357,98957
443,98968
350,98980
429,98992
388,99003
397,99014
431,99025
361,99038
447,99049
353,99060
423,99072
382,99083
408,99094
494,99106
423,99118
416,99129
331,99140
425,99151
397,99163
396,99175
447,99186
374,99197
466,99209
376,99220
442,99231
418,99244
414,99255
476,99266
406,99277
506,99289
425,99300
497,99312
485,99323
475,99335
535,99346
450,99357
526,99369
416,99381
450,99392
413,99403
384,99415
441,99426
355,99438
443,99449
356,99461
409,99472
397,99483
373,99494
437,99507
349,99518
435,99529
341,99616
333,99617
331,99619
341,99620
364,99622
391,99623
414,99625
411,99630
348,99642
372,99653
393,99664
338,99676
425,99687
336,99698
414,99710
349,99722
364,99733
391,99744
330,99756
410,99767
314,99779
401,99790
396,99802
417,99813
371,99824
281,99835
398,99848
319,99859
394,99870
348,99881
357,99893
398,99905
332,99916
423,99928
330,99939
406,99950
369,99961
380,99974
436,99985
375,99996
474,100007
395,100020
434,100032
480,100045
392,100058
449,100070
395,100082
343,100094
408,100108
311,100120
342,100132
381,100145
300,100157
373,100169
342,100183
311,100195
390,100207
300,100219
336,100232
376,100245
291,100257
362,100270
330,100282
301,100294
379,100307
290,100320
327,100332
367,100344
284,100357
357,100369
324,100382
299,100395
387,100407
299,100419
330,100431
368,100445
284,100457
357,100469
324,100482
300,100494
424,100507
342,100519
301,100532
334,100544
287,100556
372,100569
343,100582
316,100594
399,100606
314,100619
355,100631
399,100644
324,100657
406,100669
383,100681
367,100694
458,100707
381,100719
427,100731
473,100744
340,100832
323,100834
311,100835
305,100837
308,100838
325,100840
352,100841
328,100853
402,100866
309,100878
357,100890
379,100903
308,100916
388,100928
339,100940
331,100953
401,100965
309,100978
359,100990
381,101003
312,101015
390,101027
337,101041
329,101053
403,101065
312,101078
361,101090
383,101103
313,101115
394,101128
342,101140
340,101152
419,101165
328,101178
370,101190
388,101202
320,101215
399,101227
346,101240
345,101253
467,101265
406,101277
375,101289
383,101303
334,101315
421,101327
369,101340
362,101352
436,101364
347,101378
402,101390
427,101402
365,101414
453,101427
410,101440
413,101452
495,101465
413,101477
475,101489
500,101502
433,101515
504,101527
431,101539
401,101552
453,101564
350,101577
394,101590
413,101602
344,101614
424,101626
371,101640
363,101652
435,101664
342,101677
392,101689
412,101702
344,101714
421,101727
367,101739
357,101751
429,101764
335,101777
387,101789
406,101801
340,101814
419,101826
366,101839
357,101852
429,101864
336,101876
387,101889
407,101902
337,101914
418,101926
363,101939
366,101951
443,101963
349,101977
394,101989
409,102001
348,102089
325,102091
309,102092
301,102094
300,102095
313,102097
340,102098
366,102111
436,102123
348,102135
412,102148
411,102160
362,102173
448,102185
383,102198
397,102210
469,102222
384,102236
454,102248
463,102260
422,102273
515,102285
451,102298
462,102310
518,102323
410,102335
451,102347
428,102360
357,102373
432,102385
355,102397
367,102410
429,102422
337,102435
400,102448
399,102460
345,102472
427,102484
354,102498
364,102510
420,102522
326,102535
386,102547
383,102559
328,102573
410,102585
337,102597
348,102609
407,102622
313,102635
377,102647
375,102660
322,102672
402,102684
329,102697
340,102710
405,102722
318,102734
382,102747
373,102759
314,102772
400,102785
327,102797
339,102809
403,102821
362,102835
435,102847
349,102859
280,102872
397,102884
335,102897
350,102909
412,102922
321,102934
389,102946
389,102959
339,102972
429,102984
362,102996
384,103009
454,103021
372,103034
449,103047
454,103059
410,103071
494,103084
410,103097
405,103109
440,103121
328,103134
380,103146
369,103158
313,103172
396,103184
324,103196
337,103208
396,103221
305,103234
370,103246
365,103259
352,103347
332,103348
315,103350
303,103352
297,103353
300,103355
317,103356
336,103368
379,103380
295,103393
369,103405
344,103417
310,103430
389,103443
302,103455
333,103468
380,103480
293,103492
366,103505
345,103518
321,103530
404,103542
313,103555
340,103568
383,103580
298,103592
370,103605
341,103617
339,103629
455,103643
356,103655
313,103667
376,103680
310,103692
389,103705
365,103717
334,103730
416,103742
333,103754
371,103768
420,103780
344,103792
425,103804
405,103817
387,103829
481,103842
405,103855
446,103867
493,103879
409,103891
468,103905
418,103917
367,103929
431,103942
336,103954
366,103967
407,103980
322,103992
396,104004
368,104016
337,104029
419,104042
334,104054
364,104067
407,104079
324,104091
398,104104
369,104117
338,104129
417,104141
329,104154
361,104167
404,104179
323,104192
395,104204
368,104216
337,104228
417,104242
330,104254
365,104266
406,104279
324,104291
396,104304
367,104316
336,104329
418,104341
330,104353
369,104367
419,104379
339,104391
408,104403
373,104416
342,104428
421,104441
333,104454
370,104466
459,104478
404,104491
413,104504
354,104516
419,104604
398,104605
380,104607
366,104608
359,104610
357,104612
367,104613
414,104625
445,104638
384,104650
474,104663
435,104675
437,104687
521,104700
437,104713
490,104725
509,104737
425,104750
484,104762
410,104775
382,104787
445,104800
346,104812
394,104824
418,104838
346,104850
426,104862
376,104875
366,104887
437,104900
344,104912
394,104925
416,104937
343,104949
423,104962
369,104975
358,104987
432,104999
337,105012
385,105024
406,105037
334,105050
412,105062
360,105074
350,105086
426,105100
332,105112
381,105124
401,105137
331,105149
410,105161
357,105175
355,105187
435,105199
340,105211
383,105224
396,105237
324,105249
403,105262
352,105274
344,105286
460,105299
395,105312
391,105324
354,105336
313,105349
409,105361
360,105374
354,105387
430,105399
341,105411
395,105423
418,105437
352,105449
437,105461
392,105474
394,105486
480,105499
397,105511
461,105524
488,105536
420,105548
497,105561
426,105574
395,105586
443,105598
331,105611
371,105623
387,105636
317,105649
400,105661
347,105673
337,105686
409,105699
318,105711
367,105723
386,105736
316,105748
394,105760
337,105774
378,105862
356,105863
335,105865
317,105866
305,105868
299,105869
301,105871
359,105882
359,105894
304,105908
386,105920
315,105932
326,105945
389,105957
294,105970
358,105982
367,105995
316,106007
396,106019
319,106032
327,106045
387,106057
294,106070
357,106082
377,106094
353,106107
423,106120
274,106132
311,106144
395,106157
310,106170
375,106182
375,106194
324,106207
411,106219
342,106231
357,106245
425,106257
343,106269
417,106281
426,106294
385,106307
479,106319
415,106332
432,106344
494,106356
388,106370
429,106382
403,106394
333,106406
406,106419
328,106431
336,106444
397,106457
307,106469
371,106481
370,106493
317,106507
399,106519
326,106531
338,106544
400,106556
309,106569
369,106582
367,106594
316,106606
398,106618
325,106631
339,106644
400,106656
309,106669
373,106681
372,106693
319,106706
402,106719
329,106731
343,106743
400,106756
310,106769
381,106781
384,106793
337,106806
413,106818
336,106830
348,106844
409,106856
317,106868
381,106881
422,106893
399,106906
427,106918
318,106931
353,106943
423,106955
337,106969
402,106981
397,106993
349,107005
437,107018
368,107030
504,107118
486,107120
467,107122
449,107123
435,107125
427,107126
424,107128
499,107140
471,107152
424,107164
482,107177
373,107190
386,107202
424,107214
335,107227
405,107240
381,107252
349,107265
431,107277
347,107289
379,107302
422,107315
338,107327
410,107339
384,107352
348,107364
427,107377
338,107389
369,107402
415,107414
330,107426
402,107440
377,107452
343,107464
425,107476
337,107489
367,107502
411,107514
327,107527
406,107539
385,107551
351,107564
426,107577
338,107589
369,107601
416,107614
331,107626
411,107639
436,107652
410,107664
391,107676
314,107688
377,107702
427,107714
344,107726
420,107739
397,107751
366,107763
448,107777
367,107789
405,107801
455,107813
380,107826
467,107839
448,107851
429,107864
519,107876
438,107888
470,107901
502,107914
399,107926
449,107938
401,107951
354,107963
426,107976
336,107988
369,108001
417,108013
335,108025
408,108039
380,108051
347,108063
426,108076
338,108088
371,108101
411,108113
326,108126
397,108138
369,108150
335,108163
415,108176
325,108188
358,108200
401,108213
313,108225
386,108238
360,108251
335,108263
417,108275
321,108288
456,108376
438,108378
414,108379
388,108381
364,108383
341,108384
319,108386
342,108397
327,108409
332,108422
411,108435
320,108447
367,108460
396,108472
327,108484
409,108497
368,108510
361,108522
443,108534
363,108547
421,108559
460,108572
398,108584
486,108597
439,108609
421,108621
480,108635
361,108647
386,108659
395,108672
314,108684
388,108697
339,108709
325,108722
403,108734
313,108746
358,108759
385,108772
312,108784
390,108796
338,108809
323,108821
394,108834
303,108847
350,108859
374,108871
302,108883
382,108897
334,108909
320,108921
395,108934
301,108946
350,108958
380,108972
316,108984
394,108996
336,109008
321,109021
395,109034
302,109046
349,109059
381,109071
355,109083
454,109096
319,109109
304,109121
404,109133
318,109146
366,109158
390,109171
319,109184
402,109196
357,109208
351,109220
430,109234
347,109246
404,109258
439,109271
381,109283
473,109296
431,109308
425,109321
498,109333
394,109345
423,109358
423,109371
336,109383
403,109395
347,109408
337,109420
411,109433
321,109446
371,109458
393,109470
324,109483
404,109496
352,109508
339,109520
409,109533
316,109545
407,109633
397,109635
378,109636
357,109638
338,109639
323,109641
314,109643
403,109655
334,109667
345,109679
416,109691
331,109705
390,109717
385,109729
327,109742
409,109754
341,109767
347,109779
412,109792
367,109804
446,109816
367,109830
298,109842
413,109854
353,109867
365,109879
430,109891
340,109904
407,109917
413,109929
361,109941
450,109954
387,109967
405,109979
478,109991
399,110004
472,110016
480,110029
432,110042
517,110054
439,110066
432,110078
471,110091
359,110104
407,110116
401,110129
343,110141
426,110153
356,110167
368,110179
430,110191
335,110203
396,110216
395,110229
342,110241
423,110254
351,110266
360,110278
420,110290
327,110304
389,110316
387,110328
333,110341
417,110353
345,110366
354,110379
417,110391
333,110403
398,110415
391,110429
334,110441
418,110453
344,110466
356,110478
418,110490
356,110503
458,110516
424,110528
287,110540
400,110553
350,110566
366,110578
429,110590
339,110603
405,110615
407,110628
361,110641
451,110653
383,110665
403,110678
472,110690
390,110703
464,110715
469,110728
423,110740
510,110752
431,110766
430,110778
470,110790
358,110802
419,110891
417,110893
403,110894
383,110896
363,110897
345,110899
332,110900
420,110912
333,110924
360,110937
406,110949
318,110961
389,110974
365,110987
328,110999
408,111011
321,111024
351,111037
397,111049
312,111062
383,111074
357,111086
321,111099
404,111112
325,111124
359,111136
401,111149
309,111161
378,111174
352,111186
316,111199
398,111211
327,111223
396,111237
438,111249
268,111261
357,111273
357,111286
329,111299
412,111311
329,111324
362,111336
411,111348
329,111361
404,111374
383,111386
356,111398
448,111411
374,111423
417,111436
473,111449
396,111461
470,111473
443,111485
399,111499
461,111511
352,111523
366,111536
400,111548
311,111560
383,111574
357,111586
320,111598
402,111610
318,111623
351,111636
397,111648
314,111661
384,111673
356,111685
324,111698
403,111711
314,111723
345,111735
388,111748
306,111760
378,111773
350,111785
319,111798
399,111810
311,111822
341,111836
384,111848
308,111860
386,111873
361,111885
323,111898
401,111910
313,111923
345,111935
388,111947
308,111960
428,111973
433,111985
332,111997
383,112010
319,112022
361,112035
407,112048
325,112060
445,112148
451,112149
443,112151
425,112153
405,112154
387,112156
374,112157
467,112169
386,112182
441,112194
474,112206
405,112219
480,112232
420,112244
384,112257
439,112269
330,112281
370,112293
398,112307
325,112319
405,112331
358,112344
347,112356
425,112369
332,112381
376,112394
401,112406
327,112418
402,112432
354,112444
340,112456
418,112468
324,112481
371,112493
399,112506
325,112519
403,112531
356,112543
342,112556
418,112569
328,112581
374,112593
399,112606
333,112618
421,112631
375,112644
355,112656
425,112668
330,112680
376,112693
402,112706
333,112718
461,112731
437,112743
345,112755
390,112769
332,112781
391,112793
422,112805
350,112818
431,112831
383,112843
373,112856
452,112868
365,112880
419,112892
456,112906
396,112918
485,112930
445,112943
442,112955
523,112968
433,112980
476,112993
485,113005
391,113017
448,113031
385,113043
364,113055
436,113068
342,113080
392,113092
417,113105
342,113118
422,113130
372,113142
358,113155
433,113168
338,113180
384,113192
406,113205
331,113217
410,113230
360,113243
348,113255
421,113267
327,113280
375,113292
398,113305
326,113317
410,113405
420,113406
418,113409
402,113410
380,113412
359,113414
341,113415
416,113426
323,113439
380,113452
384,113464
365,113476
463,113488
340,113502
301,113514
401,113526
323,113539
388,113551
395,113564
341,113576
426,113589
360,113601
370,113613
439,113626
351,113639
418,113651
431,113664
384,113676
478,113688
419,113701
432,113714
498,113726
400,113738
443,113751
424,113764
346,113776
413,113788
337,113801
339,113813
403,113825
310,113839
372,113851
375,113863
318,113875
399,113888
331,113901
336,113913
401,113926
311,113938
369,113950
369,113964
310,113976
392,113988
321,114000
328,114013
393,114025
299,114038
359,114051
362,114063
306,114075
390,114087
321,114101
327,114113
389,114125
300,114138
369,114150
378,114163
317,114176
393,114188
320,114200
330,114212
395,114225
302,114238
377,114250
424,114263
385,114275
381,114287
314,114300
342,114313
409,114325
320,114337
383,114350
387,114363
334,114375
421,114387
356,114400
371,114412
440,114424
357,114438
430,114450
443,114462
399,114475
491,114487
424,114500
434,114512
488,114525
378,114537
418,114549
402,114563
336,114575
396,114663
414,114664
419,114666
410,114667
393,114669
372,114670
352,114672
411,114683
324,114697
395,114709
373,114721
333,114734
416,114746
333,114758
358,114771
409,114784
321,114796
392,114808
372,114821
336,114834
419,114846
335,114859
361,114871
412,114883
325,114896
395,114909
373,114921
334,114933
421,114946
347,114958
376,114971
420,114983
326,114996
395,115008
374,115020
336,115034
419,115046
369,115058
432,115070
440,115083
291,115096
391,115108
387,115121
351,115133
437,115145
354,115158
385,115171
438,115183
356,115195
431,115208
415,115220
387,115233
477,115246
403,115258
446,115270
506,115282
424,115296
500,115308
474,115320
426,115333
487,115345
380,115357
392,115371
429,115383
339,115395
409,115407
387,115420
350,115433
431,115445
346,115458
374,115470
423,115482
334,115495
403,115508
379,115520
342,115532
424,115545
339,115557
367,115570
414,115582
327,115595
393,115607
371,115619
334,115633
416,115645
330,115657
359,115670
408,115682
319,115695
390,115707
371,115720
342,115732
426,115744
335,115757
359,115770
405,115782
319,115794
390,115807
368,115819
367,115832
391,115919
415,115921
427,115923
426,115924
411,115927
390,115928
369,115930
413,115941
337,115953
419,115966
381,115979
369,115991
454,116003
371,116016
427,116028
470,116041
404,116054
488,116066
447,116078
427,116090
493,116104
379,116116
401,116128
414,116141
325,116153
398,116166
353,116178
334,116191
411,116203
319,116215
365,116228
395,116241
317,116253
394,116265
349,116278
330,116290
407,116303
313,116316
357,116328
385,116340
308,116353
385,116366
338,116378
319,116390
395,116403
305,116415
349,116427
378,116441
302,116453
379,116465
332,116477
318,116490
402,116503
314,116515
358,116528
382,116540
304,116552
382,116566
337,116578
320,116590
413,116602
363,116615
405,116627
352,116640
292,116653
393,116665
354,116677
337,116689
417,116703
327,116715
376,116727
410,116740
339,116752
425,116765
388,116777
380,116790
467,116802
387,116814
444,116827
482,116840
409,116852
486,116865
431,116877
392,116889
448,116902
340,116915
374,116927
399,116939
324,116952
402,116965
357,116977
341,116989
420,117002
328,117014
374,117026
402,117040
327,117052
403,117064
357,117076
340,117089
361,117177
388,117179
406,117180
410,117182
401,117184
382,117185
361,117187
385,117198
324,117211
407,117223
345,117236
343,117249
412,117261
325,117273
385,117285
395,117299
327,117311
404,117323
343,117336
344,117348
412,117360
332,117373
431,117386
460,117398
310,117410
397,117423
354,117436
361,117448
429,117460
336,117473
392,117485
407,117498
348,117511
436,117523
379,117535
386,117548
465,117560
383,117573
453,117585
475,117598
421,117610
507,117622
445,117636
439,117648
488,117660
372,117672
409,117685
408,117698
340,117710
420,117723
359,117735
358,117747
427,117760
333,117773
388,117785
396,117797
334,117810
414,117822
352,117835
351,117848
417,117860
321,117872
377,117884
387,117898
324,117910
407,117922
345,117935
347,117947
416,117959
323,117972
379,117985
388,117997
324,118009
409,118022
354,118035
355,118047
418,118060
321,118072
378,118084
389,118097
326,118110
411,118122
388,118134
415,118147
414,118159
278,118172
371,118184
398,118197
340,118209
422,118221
363,118235
365,118247
437,118259
348,118272
410,118284
428,118297
373,118309
467,118322
416,118334
427,118346
388,118434
414,118436
434,118437
442,118439
436,118440
418,118443
396,118445
389,118456
336,118468
417,118480
339,118493
359,118506
417,118518
325,118531
391,118543
382,118555
333,118568
413,118581
333,118593
349,118605
407,118618
315,118630
380,118643
370,118656
320,118668
403,118680
324,118692
343,118706
400,118718
306,118730
373,118743
369,118755
327,118768
407,118780
321,118793
337,118805
395,118817
303,118830
371,118843
376,118855
367,118867
437,118880
272,118892
311,118905
400,118918
315,118930
384,118942
377,118955
331,118968
418,118980
347,118992
369,119005
432,119017
351,119029
426,119043
428,119055
390,119067
484,119079
412,119092
434,119105
489,119117
388,119130
434,119142
403,119154
337,119168
411,119180
327,119192
344,119204
405,119217
315,119229
382,119242
373,119255
323,119267
406,119279
327,119291
343,119305
400,119317
306,119329
371,119342
361,119354
312,119367
395,119379
318,119392
335,119404
393,119416
302,119429
367,119442
358,119454
309,119467
399,119479
330,119491
348,119504
398,119517
305,119529
371,119541
362,119554
313,119567
401,119579
372,119591
416,119604
351,119692
379,119694
405,119695
420,119697
422,119698
410,119700
390,119701
377,119713
349,119726
436,119738
355,119750
395,119762
448,119776
377,119788
461,119800
444,119813
419,119825
501,119838
408,119851
425,119863
446,119875
344,119887
402,119901
369,119913
335,119925
415,119938
327,119950
359,119962
405,119975
321,119988
393,120000
365,120012
334,120025
415,120038
326,120050
358,120062
403,120075
317,120087
388,120100
362,120113
329,120125
410,120137
324,120150
355,120162
400,120175
317,120187
390,120200
365,120212
341,120224
425,120238
333,120250
360,120262
402,120274
316,120287
389,120300
363,120312
353,120325
475,120337
380,120349
328,120361
396,120375
333,120387
409,120399
382,120412
353,120424
436,120437
353,120450
388,120462
439,120474
361,120486
440,120500
424,120512
401,120524
495,120537
420,120549
460,120561
508,120574
419,120587
479,120599
432,120611
378,120624
441,120637
343,120649
373,120662
417,120674
332,120686
406,120699
378,120712
346,120724
430,120736
343,120749
375,120761
420,120774
335,120786
403,120799
375,120811
342,120823
424,120837
336,120849
366,120861
345,120949
371,120950
398,120952
419,120954
427,120955
420,120957
402,120958
364,120971
343,120983
418,120995
325,121008
370,121020
398,121032
341,121046
469,121058
416,121070
301,121082
397,121095
333,121108
386,121120
417,121133
343,121145
422,121157
379,121170
369,121183
449,121195
362,121207
416,121220
453,121232
389,121245
480,121257
443,121270
434,121282
512,121294
416,121308
448,121320
456,121332
361,121345
421,121357
364,121370
344,121382
421,121395
330,121407
376,121419
403,121432
329,121445
408,121457
361,121469
341,121482
414,121494
320,121507
365,121520
393,121532
315,121544
392,121556
345,121570
329,121582
404,121594
313,121607
358,121619
385,121631
311,121645
394,121657
352,121669
336,121681
404,121694
308,121707
352,121719
381,121732
308,121744
392,121756
392,121769
378,121782
366,121794
272,121806
352,121819
392,121831
320,121844
400,121857
357,121869
343,121881
425,121893
337,121907
386,121919
423,121931
357,121944
444,121956
410,121969
405,121981
491,121994
403,122006
448,122018
467,122031
371,122044
429,122056
366,122068
337,122081
406,122093
312,122106
359,122119
315,122203
312,122205
318,122207
339,122208
367,122210
392,122211
405,122213
307,122224
376,122236
360,122249
317,122262
400,122274
319,122287
343,122299
395,122311
304,122324
373,122337
358,122349
317,122361
397,122374
317,122387
348,122399
408,122412
322,122424
383,122436
364,122448
321,122462
402,122474
322,122486
352,122499
450,122511
377,122524
364,122536
341,122549
327,122561
418,122573
340,122587
364,122599
420,122611
332,122624
406,122636
394,122648
357,122661
450,122674
378,122686
411,122698
474,122711
398,122724
476,122736
466,122748
423,122761
500,122773
399,122786
399,122799
434,122811
334,122823
396,122835
381,122848
341,122861
426,122873
345,122886
366,122898
419,122910
329,122924
397,122936
382,122948
337,122960
418,122973
335,122986
358,122998
413,123011
324,123023
392,123035
377,123047
333,123061
416,123073
336,123085
360,123098
415,123110
324,123123
390,123136
379,123148
344,123160
428,123172
344,123186
362,123198
415,123210
325,123223
394,123235
379,123247
366,123260
486,123273
372,123285
323,123297
407,123310
335,123323
408,123335
396,123347
354,123360
439,123372
433,123456
415,123458
402,123459
394,123461
393,123463
403,123464
427,123466
441,123478
507,123490
421,123502
487,123515
474,123528
406,123540
469,123552
371,123565
375,123577
428,123590
335,123602
399,123615
394,123627
344,123639
431,123653
356,123665
371,123677
429,123689
336,123702
398,123715
392,123727
339,123740
421,123752
343,123764
356,123777
414,123790
322,123802
384,123814
381,123827
330,123839
412,123852
337,123865
351,123877
411,123889
317,123901
381,123915
377,123927
333,123939
422,123952
345,123964
352,123976
408,123990
315,124002
380,124014
374,124026
329,124039
457,124052
385,124064
315,124077
375,124089
316,124101
388,124114
386,124127
336,124139
421,124151
349,124164
367,124176
432,124189
344,124201
415,124214
419,124226
380,124238
475,124252
409,124264
433,124276
498,124289
405,124301
459,124314
434,124326
360,124339
424,124351
337,124363
346,124376
406,124389
316,124401
380,124413
378,124426
325,124438
408,124451
333,124464
343,124476
403,124488
312,124500
375,124514
370,124526
318,124538
398,124551
323,124563
335,124575
396,124589
303,124601
366,124613
364,124625
399,124709
389,124711
370,124712
348,124715
329,124716
314,124718
305,124720
392,124731
324,124743
338,124755
407,124768
313,124781
368,124793
370,124806
312,124818
394,124830
328,124844
343,124856
459,124868
395,124880
366,124893
359,124905
322,124918
412,124931
346,124943
353,124955
421,124967
331,124981
394,124993
403,125005
350,125018
440,125030
383,125043
399,125056
477,125068
394,125080
463,125092
474,125105
415,125118
489,125130
406,125143
389,125155
437,125167
331,125180
384,125193
390,125205
331,125217
413,125230
347,125243
354,125255
420,125267
327,125280
387,125292
393,125304
330,125318
411,125330
342,125342
345,125355
410,125367
317,125380
377,125392
383,125405
324,125417
407,125429
338,125443
343,125455
411,125467
318,125479
375,125492
383,125504
325,125517
407,125530
341,125542
348,125554
424,125566
332,125580
388,125592
387,125604
325,125617
408,125629
342,125642
346,125655
426,125667
384,125679
455,125691
362,125704
310,125717
421,125729
358,125742
366,125754
433,125766
342,125779
408,125792
419,125804
364,125816
454,125829
392,125842
405,125854
484,125867
402,125879
434,125963
458,125965
472,125966
472,125968
458,125969
436,125971
412,125972
424,125984
348,125997
425,126009
365,126021
361,126033
431,126047
338,126059
392,126071
408,126084
343,126096
422,126109
362,126121
357,126134
427,126146
330,126158
383,126172
397,126184
330,126196
410,126209
350,126221
347,126233
419,126246
324,126259
378,126271
393,126283
325,126296
407,126309
354,126321
357,126333
430,126346
328,126358
377,126371
392,126384
327,126396
407,126408
348,126420
393,126433
474,126446
298,126458
337,126471
386,126483
330,126495
416,126509
359,126521
358,126533
433,126545
342,126558
400,126571
420,126583
362,126596
452,126608
403,126620
411,126632
495,126646
410,126658
471,126670
485,126683
409,126695
471,126708
387,126721
364,126733
423,126745
321,126757
372,126771
387,126783
319,126795
402,126808
342,126820
337,126832
409,126845
314,126858
368,126870
382,126882
314,126895
395,126908
336,126920
332,126932
401,126945
303,126957
358,126970
374,126983
307,126995
387,127007
327,127020
326,127032
405,127045
312,127057
367,127070
376,127082
308,127094
390,127108
327,127120
323,127132
312,127216
317,127217
336,127219
364,127221
391,127222
407,127224
409,127225
318,127238
369,127250
393,127262
326,127275
412,127287
366,127300
361,127312
445,127325
362,127337
424,127349
457,127362
397,127375
486,127387
437,127399
421,127412
479,127424
361,127437
389,127450
397,127462
318,127474
396,127486
344,127500
333,127512
408,127524
313,127537
364,127549
387,127561
315,127575
394,127587
341,127599
329,127611
404,127624
309,127637
357,127649
379,127662
309,127674
389,127686
337,127699
330,127712
410,127724
320,127736
367,127749
382,127761
308,127774
390,127787
337,127799
327,127811
411,127823
359,127837
416,127849
353,127861
288,127874
397,127886
351,127899
345,127911
421,127924
329,127936
383,127948
408,127961
343,127974
431,127986
385,127998
385,128011
472,128023
390,128036
451,128049
483,128061
416,128073
496,128086
430,128099
400,128111
452,128123
340,128136
380,128148
396,128160
327,128174
407,128186
355,128198
347,128210
421,128223
328,128236
380,128248
401,128261
330,128273
412,128285
356,128299
347,128311
418,128323
321,128335
371,128348
400,128360
335,128373
417,128386
379,128470
371,128471
367,128473
368,128474
377,128476
399,128478
428,128479
404,128490
392,128503
303,128516
374,128528
407,128540
333,128552
415,128566
372,128578
359,128590
441,128603
352,128615
404,128628
438,128641
373,128653
465,128665
430,128677
425,128690
510,128703
419,128715
464,128728
475,128740
377,128752
435,128765
371,128778
348,128790
421,128802
327,128815
375,128828
402,128840
326,128852
408,128865
359,128877
344,128889
419,128903
324,128915
371,128927
399,128940
322,128952
401,128965
352,128977
336,128990
412,129002
324,129014
377,129028
403,129040
321,129052
397,129064
348,129077
332,129089
406,129102
316,129115
412,129127
468,129139
317,129152
372,129165
348,129177
342,129189
420,129202
326,129214
375,129227
404,129240
334,129252
420,129264
377,129276
372,129289
456,129302
372,129314
432,129327
468,129339
404,129351
488,129364
437,129377
415,129389
473,129401
357,129414
387,129427
398,129439
320,129452
401,129464
354,129476
340,129488
416,129502
321,129514
369,129526
393,129539
319,129551
397,129564
345,129576
330,129589
408,129601
314,129613
362,129627
385,129639
402,129723
385,129724
364,129726
343,129727
326,129729
314,129730
308,129732
388,129743
344,129756
325,129769
418,129781
378,129794
423,129806
349,129818
282,129831
393,129844
357,129856
341,129868
420,129881
331,129894
379,129906
412,129918
340,129931
425,129943
387,129955
380,129969
470,129981
388,129993
442,130006
478,130018
407,130031
484,130043
427,130056
389,130068
444,130080
336,130094
373,130106
398,130118
322,130130
402,130143
358,130155
343,130168
420,130181
326,130193
371,130205
397,130217
320,130231
399,130243
352,130255
333,130268
409,130280
316,130293
361,130306
390,130318
312,130330
392,130342
349,130355
337,130368
413,130380
313,130393
357,130405
385,130417
307,130430
387,130443
345,130455
377,130467
456,130480
277,130493
319,130505
383,130518
318,130530
398,130542
353,130554
341,130568
422,130580
334,130592
385,130605
418,130617
351,130630
439,130642
401,130655
398,130667
485,130679
398,130693
451,130705
478,130717
394,130729
455,130742
385,130754
352,130767
417,130780
319,130792
365,130804
392,130817
319,130830
400,130842
352,130854
335,130867
411,130879
319,130892
325,130973
351,130974
378,130976
398,130977
404,130979
397,130981
379,130982
343,130994
332,131007
408,131019
315,131032
361,131044
386,131056
318,131069
406,131082
358,131094
338,131106
413,131119
320,131132
367,131144
390,131156
316,131169
434,131181
416,131193
368,131207
389,131219
316,131231
377,131244
408,131256
336,131269
417,131281
370,131294
363,131306
441,131318
353,131332
408,131344
438,131356
376,131368
467,131381
428,131393
425,131406
504,131419
411,131431
455,131443
464,131456
373,131469
434,131481
372,131493
353,131506
425,131518
331,131531
380,131544
404,131556
332,131568
411,131580
361,131593
349,131606
422,131618
328,131631
375,131643
399,131655
325,131668
405,131681
353,131693
341,131705
417,131718
323,131731
372,131743
394,131756
323,131768
405,131780
352,131792
336,131806
411,131818
323,131830
380,131843
406,131855
332,131868
408,131880
354,131893
341,131905
415,131917
318,131931
394,131943
457,131955
376,131968
376,131980
344,131992
352,132005
430,132018
336,132030
386,132042
412,132055
346,132068
430,132080
383,132092
379,132105
462,132117
378,132130
439,132143
465,132221
442,132222
419,132225
401,132226
389,132228
384,132229
391,132231
414,132242
418,132254
338,132268
415,132280
360,132292
352,132304
428,132317
334,132330
384,132342
405,132355
333,132367
413,132379
357,132391
345,132405
419,132417
322,132429
372,132442
393,132454
323,132467
405,132480
351,132492
339,132504
413,132516
318,132530
366,132542
385,132554
314,132567
400,132579
353,132591
346,132604
416,132617
315,132629
363,132641
383,132654
313,132667
397,132679
367,132691
401,132704
453,132716
269,132729
343,132742
390,132754
326,132766
411,132779
357,132791
352,132804
429,132816
338,132829
395,132841
419,132853
357,132867
451,132879
405,132891
408,132903
493,132916
402,132929
455,132941
472,132954
390,132966
453,132978
375,132990
351,133004
416,133016
318,133028
369,133041
389,133053
319,133066
402,133079
345,133091
337,133103
410,133115
314,133129
365,133141
382,133153
310,133166
393,133178
336,133190
330,133203
401,133216
305,133228
358,133240
375,133253
309,133266
391,133278
333,133291
325,133303
398,133315
308,133328
370,133341
388,133353
316,133365
392,133378
335,133390
352,133474
360,133475
357,133477
342,133479
323,133480
305,133482
292,133483
402,133495
319,133508
378,133520
386,133532
328,133544
415,133558
353,133570
361,133582
433,133595
347,133607
416,133619
432,133633
382,133645
476,133657
420,133669
427,133682
495,133695
391,133707
432,133720
421,133732
341,133744
415,133757
344,133770
346,133782
414,133794
319,133807
379,133819
388,133832
328,133844
409,133857
343,133869
345,133881
412,133895
318,133907
377,133919
382,133932
322,133944
404,133957
337,133969
340,133982
405,133994
313,134006
373,134019
379,134032
319,134044
403,134056
336,134069
344,134081
418,134094
325,134107
379,134119
379,134131
320,134144
404,134157
336,134169
341,134181
441,134194
383,134206
422,134218
360,134232
321,134244
421,134256
357,134268
365,134281
433,134294
342,134306
405,134319
413,134331
362,134343
451,134356
390,134369
407,134381
482,134393
401,134406
473,134418
478,134431
423,134444
502,134456
418,134468
402,134480
446,134494
339,134506
391,134518
392,134531
333,134543
417,134556
349,134568
357,134581
421,134593
329,134605
388,134618
389,134631
333,134643
327,134726
345,134728
372,134729
398,134731
415,134732
417,134734
406,134736
338,134748
354,134760
415,134772
324,134785
388,134798
378,134810
330,134822
421,134835
352,134847
370,134860
420,134873
325,134885
391,134897
382,134909
333,134923
421,134935
394,134947
424,134960
389,134972
297,134984
397,134998
395,135010
352,135022
436,135034
362,135047
383,135060
445,135072
360,135085
430,135097
429,135109
388,135122
484,135135
416,135147
446,135159
510,135172
421,135184
489,135197
469,135209
405,135222
467,135234
369,135246
375,135260
425,135272
332,135284
401,135297
390,135309
343,135322
427,135334
347,135347
366,135359
420,135371
326,135384
391,135397
379,135409
334,135421
418,135434
338,135446
356,135459
412,135472
320,135484
387,135496
375,135508
328,135522
412,135534
336,135546
364,135559
421,135571
322,135583
385,135597
371,135609
325,135621
410,135633
332,135646
395,135659
462,135671
302,135684
339,135696
360,135708
329,135721
417,135734
337,135746
361,135758
420,135771
333,135783
404,135796
395,135809
359,135821
450,135833
380,135845
415,135859
480,135871
399,135883
472,135896
339,135980
324,135981
315,135983
314,135984
325,135986
348,135987
376,135989
322,136000
406,136012
321,136026
352,136038
400,136050
312,136062
383,136075
357,136088
321,136100
403,136113
317,136125
346,136137
390,136151
301,136163
374,136175
348,136187
314,136200
396,136212
309,136225
340,136238
384,136250
299,136262
378,136274
357,136288
324,136300
401,136312
312,136325
343,136337
386,136350
300,136363
379,136375
398,136387
384,136399
384,136412
289,136425
349,136437
401,136450
319,136462
393,136474
368,136487
338,136500
425,136512
343,136524
382,136537
432,136550
357,136562
440,136574
423,136587
402,136599
492,136611
406,136625
440,136637
471,136649
368,136662
421,136674
375,136687
335,136699
410,136712
321,136724
355,136736
398,136750
316,136762
393,136774
364,136786
334,136799
413,136811
322,136824
358,136837
399,136849
315,136861
388,136873
357,136887
328,136899
406,136911
316,136924
350,136936
392,136949
312,136962
384,136974
352,136986
328,136998
417,137011
331,137024
361,137036
398,137049
314,137061
390,137073
358,137086
332,137099
453,137111
387,137123
355,137136
371,137149
436,137232
420,137234
399,137235
379,137237
363,137238
353,137240
348,137241
433,137253
398,137266
384,137278
474,137290
392,137303
447,137316
490,137328
420,137340
501,137353
456,137365
427,137378
484,137391
369,137403
396,137415
418,137427
335,137440
413,137453
371,137465
352,137478
432,137490
338,137502
381,137516
413,137528
337,137540
414,137552
372,137565
350,137578
428,137590
334,137603
377,137615
406,137627
329,137639
408,137653
365,137665
345,137677
425,137690
338,137702
386,137715
417,137728
333,137740
405,137752
362,137764
344,137778
422,137790
332,137802
429,137815
476,137827
314,137839
374,137852
362,137865
355,137877
435,137889
342,137902
391,137915
424,137927
351,137939
437,137952
397,137964
388,137977
474,137990
390,138002
449,138014
485,138027
416,138039
503,138052
454,138064
429,138077
488,138089
371,138101
397,138115
411,138127
331,138139
408,138151
361,138164
345,138177
421,138189
329,138202
376,138214
402,138226
327,138238
404,138252
352,138264
336,138276
412,138289
319,138301
365,138314
391,138327
315,138339
394,138351
344,138363
329,138377
404,138389
311,138401
359,138484
385,138486
400,138488
402,138489
390,138491
370,138492
348,138494
378,138506
326,138518
447,138530
378,138544
287,138556
381,138568
312,138580
372,138593
390,138606
325,138618
410,138631
356,138643
356,138655
432,138669
344,138681
406,138693
429,138705
372,138718
466,138730
416,138743
419,138756
493,138768
394,138780
434,138792
426,138806
341,138818
408,138830
340,138843
333,138855
404,138868
310,138881
365,138893
379,138905
314,138917
397,138930
337,138943
332,138955
400,138968
304,138980
358,138992
370,139005
307,139018
390,139030
329,139042
328,139055
396,139068
303,139080
358,139092
369,139105
306,139117
389,139129
327,139143
324,139155
398,139167
313,139180
372,139192
379,139205
311,139217
392,139230
330,139242
330,139254
398,139268
339,139280
435,139292
427,139304
293,139317
391,139329
343,139342
348,139355
418,139367
326,139379
384,139392
398,139405
343,139417
430,139429
374,139442
386,139454
464,139467
383,139480
451,139492
467,139504
413,139516
499,139529
429,139542
416,139554
462,139567
348,139579
392,139591
394,139604
332,139617
411,139629
345,139641
349,139654
322,139738
321,139739
332,139741
357,139742
385,139744
407,139746
416,139747
321,139758
382,139771
379,139784
326,139796
409,139808
337,139821
347,139834
410,139846
316,139858
379,139871
378,139883
324,139896
409,139909
340,139921
361,139933
423,139945
325,139958
385,139971
381,139983
329,139996
411,140008
342,140020
400,140034
489,140046
326,140058
351,140070
381,140083
344,140096
432,140108
358,140121
374,140133
436,140145
348,140157
417,140171
417,140183
373,140195
466,140208
401,140220
428,140233
499,140246
415,140258
485,140270
481,140282
424,140296
491,140308
393,140320
389,140333
437,140345
340,140357
401,140370
392,140383
342,140395
428,140407
353,140420
371,140433
430,140445
340,140457
402,140470
392,140482
342,140495
426,140508
349,140520
365,140532
422,140545
330,140557
394,140570
385,140582
336,140595
418,140607
341,140619
358,140633
415,140645
322,140657
389,140669
386,140682
344,140695
426,140707
340,140720
356,140732
414,140744
322,140756
389,140770
397,140782
388,140794
459,140807
290,140819
334,140832
417,140845
334,140857
402,140869
393,140881
349,140895
436,140907
443,140990
424,140992
409,140993
399,140995
396,140996
401,140998
422,141000
446,141011
501,141024
411,141036
476,141048
437,141062
376,141074
438,141086
339,141099
357,141111
404,141124
315,141136
389,141149
369,141161
329,141173
413,141186
327,141199
354,141211
402,141223
314,141236
382,141248
359,141261
320,141274
402,141286
316,141298
346,141310
395,141324
306,141336
377,141348
355,141361
319,141373
402,141385
316,141399
345,141411
388,141423
300,141435
375,141448
359,141461
326,141473
406,141486
315,141498
345,141510
390,141523
304,141536
377,141548
389,141560
389,141573
441,141585
292,141598
340,141611
399,141623
316,141635
388,141647
363,141661
330,141673
418,141685
334,141698
370,141710
422,141723
346,141735
430,141748
414,141760
391,141772
483,141785
405,141798
440,141810
478,141822
376,141835
426,141847
378,141860
332,141873
405,141885
316,141897
348,141910
393,141923
312,141935
386,141947
357,141960
326,141972
407,141984
318,141998
350,142010
392,142022
307,142034
380,142047
349,142060
320,142072
399,142085
312,142097
346,142109
388,142123
308,142135
382,142147
351,142159
392,142246
372,142248
352,142249
335,142252
324,142253
318,142255
320,142256
388,142268
380,142280
324,142292
406,142305
329,142317
345,142330
404,142343
321,142355
437,142367
443,142380
303,142393
391,142405
344,142417
368,142430
429,142442
338,142455
408,142468
403,142480
361,142492
449,142504
377,142517
405,142530
471,142542
391,142555
472,142567
472,142579
435,142593
522,142605
442,142617
455,142629
493,142642
380,142655
429,142667
406,142680
353,142692
435,142704
355,142716
377,142730
435,142742
344,142754
411,142767
399,142779
351,142792
433,142804
353,142817
374,142829
428,142841
335,142855
400,142867
389,142879
345,142892
427,142904
347,142916
366,142929
419,142942
329,142954
399,142966
389,142979
345,142992
426,143004
346,143016
371,143029
432,143041
346,143054
410,143067
387,143079
341,143091
425,143104
343,143116
368,143129
443,143141
393,143154
444,143166
339,143178
320,143192
432,143204
355,143216
381,143228
436,143241
349,143254
420,143266
406,143279
369,143291
462,143303
387,143315
421,143329
484,143341
406,143353
486,143366
477,143378
